gyro-1,gyro-2,gyro-3,gyro-4,gyro-5,gyro-6,emg-1,emg-2,emg-3,emg-4,emg-5,emg-6,emg-7,emg-8,label
-79,-138,1006,0,0,0,2056,2035,2032,2007,2019,2097,2064,2042,0
-79,-137,1006,0,0,0,2017,2065,2071,2122,2088,2041,2048,2046,0
-79,-136,1006,0,0,0,2070,2029,2026,2001,2008,2101,2059,2047,0
-79,-136,1006,0,0,0,2023,2063,2066,2081,2075,2067,2049,2039,0
-79,-136,1006,0,0,0,2045,2046,2048,2061,2042,2067,2052,2047,0
-79,-136,1006,0,0,0,2051,2039,2031,2010,2028,2095,2061,2048,0
-79,-136,1006,0,0,0,2017,2065,2072,2110,2084,2046,2045,2043,0
-79,-136,1006,0,0,0,2066,2027,2026,1997,2001,2099,2063,2045,0
-79,-136,1006,0,0,0,2053,2026,2023,2011,2007,2092,2056,2041,0
-79,-136,1006,0,0,0,2016,2071,2071,2109,2095,2050,2041,2040,0
-79,-136,1006,0,0,0,2064,2026,2026,2008,1999,2099,2064,2046,0
-79,-136,1006,0,0,0,2021,2061,2057,2072,2073,2064,2048,2033,0
-79,-136,1006,0,0,0,2037,2045,2047,2069,2038,2062,2046,2041,0
-79,-136,1006,0,0,0,2051,2031,2034,2003,2024,2096,2058,2043,0
-79,-136,1006,0,0,0,2012,2070,2069,2111,2095,2041,2040,2043,0
-79,-136,1006,0,0,0,2063,2023,2024,2008,1995,2101,2060,2045,0
-79,-136,1006,0,0,0,2022,2061,2059,2083,2071,2059,2048,2038,0
-79,-136,1006,0,0,0,2042,2039,2045,2050,2040,2070,2048,2044,0
-79,-136,1006,0,0,0,2058,2035,2036,2017,2018,2086,2066,2044,0
-79,-136,1006,0,0,0,2015,2068,2068,2107,2090,2042,2041,2045,0
-79,-136,1006,0,0,0,2067,2027,2029,2003,1998,2108,2064,2047,0
-79,-136,1006,0,0,0,2019,2066,2063,2086,2083,2058,2048,2042,0
-79,-136,1006,0,0,0,2051,2042,2045,2051,2029,2077,2054,2049,0
-79,-136,1006,0,0,0,2053,2045,2037,2031,2030,2091,2059,2040,0
-79,-136,1006,0,0,0,2020,2066,2068,2111,2083,2045,2043,2043,0
-79,-136,1006,0,0,0,2067,2024,2028,2007,1997,2098,2061,2052,0
-79,-136,1006,0,0,0,2023,2069,2063,2082,2096,2057,2048,2037,0
-79,-136,1006,0,0,0,2048,2041,2042,2050,2030,2079,2052,2049,0
-79,-136,1006,0,0,0,2049,2043,2044,2031,2032,2089,2062,2046,0
-79,-136,1006,0,0,0,2025,2066,2060,2077,2084,2061,2045,2042,0
-79,-136,1006,0,0,0,2040,2042,2046,2055,2037,2074,2053,2049,0
-79,-136,1006,0,0,0,2055,2043,2037,2030,2026,2097,2059,2044,0
-79,-136,1006,0,0,0,2021,2064,2072,2100,2090,2046,2043,2041,0
-79,-136,1006,0,0,0,2070,2031,2025,2015,1997,2095,2065,2050,0
-79,-136,1006,0,0,0,2013,2063,2066,2079,2091,2059,2045,2038,0
-79,-136,1006,0,0,0,2044,2039,2042,2052,2031,2071,2054,2049,0
-79,-136,1006,0,0,0,2043,2041,2035,2029,2026,2088,2055,2038,0
-79,-136,1006,0,0,0,2012,2057,2067,2092,2081,2042,2035,2040,0
-79,-136,1006,0,0,0,2063,2020,2022,1996,2001,2101,2059,2044,0
-79,-136,1006,0,0,0,2016,2064,2063,2083,2085,2058,2047,2041,0
-79,-136,1006,0,0,0,2054,2038,2039,2040,2027,2076,2049,2047,0
-79,-136,1006,0,0,0,2050,2046,2042,2033,2041,2084,2063,2046,0
-79,-136,1006,0,0,0,2023,2063,2068,2102,2085,2053,2043,2041,0
-79,-136,1006,0,0,0,2069,2028,2026,1993,1996,2103,2063,2049,0
-79,-136,1006,0,0,0,2016,2065,2068,2100,2087,2057,2045,2041,0
-79,-136,1006,0,0,0,2053,2036,2042,2043,2019,2079,2054,2046,0
-79,-136,1006,0,0,0,2044,2052,2044,2035,2045,2088,2063,2043,0
-79,-136,1006,0,0,0,2025,2059,2063,2094,2081,2048,2046,2043,0
-79,-136,1006,0,0,0,2065,2028,2026,2009,2006,2105,2061,2042,0
-79,-136,1006,0,0,0,2014,2067,2068,2101,2094,2050,2043,2040,0
-79,-137,1006,0,0,0,2020,2062,2068,2087,2076,2051,2039,2041,0
-79,-137,1006,0,0,0,2064,2026,2025,2003,2001,2104,2064,2045,0
-79,-137,1006,0,0,0,2020,2066,2067,2096,2091,2048,2048,2041,0
-79,-137,1006,0,0,0,2045,2037,2041,2033,2027,2080,2058,2049,0
-79,-137,1006,0,0,0,2042,2047,2043,2033,2037,2082,2061,2043,0
-79,-137,1006,0,0,0,2023,2060,2063,2096,2074,2048,2043,2043,0
-79,-137,1006,0,0,0,2066,2030,2029,1998,2005,2108,2064,2042,0
-79,-137,1006,0,0,0,2013,2067,2069,2102,2089,2045,2047,2037,0
-79,-137,1006,0,0,0,2053,2030,2038,2037,2021,2082,2051,2046,0
-79,-137,1006,0,0,0,2041,2048,2041,2045,2041,2080,2052,2040,0
-79,-137,1006,0,0,0,2022,2056,2063,2085,2067,2056,2043,2044,0
-79,-137,1006,0,0,0,2061,2025,2024,2003,1993,2100,2058,2047,0
-79,-137,1006,0,0,0,2008,2066,2068,2102,2094,2045,2039,2041,0
-79,-137,1006,0,0,0,2055,2031,2036,2028,2016,2100,2058,2041,0
-79,-138,1006,0,0,0,2035,2045,2045,2036,2047,2113,2058,2038,0
-79,-138,1006,0,0,0,2023,2056,2062,2085,2061,2098,2038,2046,0
-80,-140,1006,0,-1,0,2064,2029,2026,1990,2009,2114,2051,2046,0
-80,-145,1006,1,-1,0,2016,2072,2084,2091,2094,2039,1972,2043,0
-81,-147,1006,3,-2,1,2092,2004,0,1718,1910,2126,1406,2051,0
-85,-146,1008,6,-3,2,2105,2003,478,1667,1834,1580,1837,1863,0
-91,-141,1012,9,-4,5,1999,1462,2836,2156,2141,1509,2132,2380,0
-97,-130,1016,10,-6,8,2038,1815,3280,2096,3748,2210,2168,2088,0
-96,-120,1012,10,-8,10,1997,2221,2606,2152,2352,2439,2108,2048,0
-87,-112,1007,12,-7,11,2017,2172,2114,2115,2051,2067,2016,1962,0
-81,-100,1007,14,-6,10,2070,2090,1952,1977,1885,2130,2029,2005,0
-71,-81,1009,14,-5,9,1998,2121,2083,2113,1739,2044,1988,1997,0
-59,-60,1008,12,-4,8,2077,2053,2001,2010,1698,2026,2025,2027,0
-51,-44,1008,9,-2,9,2032,2075,2047,2039,1849,2113,2053,2032,0
-50,-34,1011,5,-1,10,2025,2068,2075,2083,1876,2081,2043,2030,0
-48,-31,1011,2,0,10,2066,2034,2006,1968,1906,2121,2071,2032,0
-44,-31,1010,0,0,9,2009,2082,2101,2096,2030,2059,2000,2043,0
-37,-35,1011,-1,0,7,2062,2009,2009,2009,2017,2082,2035,2027,0
-30,-41,1011,0,0,5,2030,2044,2044,2043,2116,2064,2033,2019,0
-34,-43,1008,1,0,3,2031,2049,1987,2065,2040,2056,2024,2003,0
-40,-44,1008,2,-1,1,2061,2025,1989,1988,2070,2091,2038,2041,0
-45,-44,1011,4,-3,-1,2015,2075,2119,2093,2107,2051,2008,2044,0
-47,-39,1015,5,-3,-2,2064,2029,2024,1999,1965,2089,2019,2070,0
-47,-31,1018,5,-2,-2,2031,2064,2071,2060,2021,2060,2024,2056,0
-47,-18,1017,4,-1,-2,2037,2054,2067,2071,2069,2061,2022,2057,0
-46,-8,1017,2,0,-2,2062,2034,2015,2004,2037,2096,2036,2058,0
-46,-3,1017,0,0,-3,2011,2076,2087,2109,2094,2062,2027,2045,0
-49,-1,1017,-1,0,-3,2071,2028,2014,1998,2015,2105,2046,2062,0
-53,-2,1017,-2,0,-3,2059,2034,2010,1992,2003,2104,2043,2059,0
-57,-6,1016,-3,0,-3,2010,2073,2097,2101,2062,2066,2034,2036,0
-59,-10,1016,-3,0,-2,2064,2028,2019,2004,2033,2090,2037,2051,0
-60,-14,1016,-3,0,-2,2028,2061,2066,2061,2089,2070,2036,2041,0
-60,-17,1016,-3,0,-2,2036,2050,2062,2075,2081,2061,2030,2035,0
-61,-19,1016,-3,0,-2,2053,2020,2007,1997,2030,2061,2028,2033,0
-61,-20,1016,-3,0,-2,2009,2068,2085,2113,2094,2039,2029,2030,0
-61,-21,1016,-4,0,-2,2067,2026,2008,2006,2034,2077,2044,2047,0
-61,-24,1015,-5,0,-2,2031,2063,2071,2069,2097,2060,2059,2030,0
-62,-29,1015,-7,0,-2,2034,2049,2056,2079,2098,1791,2053,2034,0
-65,-38,1015,-8,0,-2,2056,2033,2016,2019,2038,1866,2051,2072,0
-68,-48,1014,-8,0,-2,2013,2070,2083,2107,2066,1932,2064,2055,0
-72,-57,1013,-8,0,-2,2058,2024,2005,2001,1992,2009,2048,2057,0
-77,-67,1012,-7,0,-2,2017,2060,2065,2055,2021,2038,2037,2049,0
-82,-75,1011,-5,0,-1,2043,2040,2046,2033,2002,2079,2031,2044,0
-87,-80,1010,-3,0,0,2051,2035,2029,2004,1992,2086,2038,2049,0
-90,-83,1009,-1,0,0,2017,2064,2086,2094,2050,2046,2033,2033,0
-90,-86,1009,0,0,0,2063,2026,2020,1988,1993,2066,2038,2053,0
-90,-86,1009,1,0,0,2026,2066,2075,2070,2056,2041,2033,2031,0
-90,-83,1009,1,0,0,2038,2040,2041,2046,2017,2054,2033,2034,0
-90,-82,1009,0,0,0,2047,2044,2033,2012,2022,2070,2042,2046,0
-89,-85,1009,0,0,0,2027,2064,2069,2068,2060,2047,2041,2041,0
-88,-85,1009,0,0,0,2046,2044,2052,2051,2040,2040,2040,2050,0
-87,-83,1009,0,0,0,2053,2039,2024,2008,2017,2058,2049,2049,0
-86,-81,1009,0,0,0,2018,2066,2086,2094,2072,2030,2047,2036,0
-86,-81,1009,1,0,0,2064,2028,2015,1993,1998,2073,2043,2051,0
-86,-81,1009,1,0,0,2021,2063,2077,2073,2067,2040,2034,2043,0
-86,-77,1010,1,0,0,2045,2044,2042,2050,2043,2036,2034,2046,0
-85,-71,1011,0,0,0,2050,2044,2033,2017,2026,2054,2040,2053,0
-84,-67,1011,0,0,0,2015,2063,2081,2100,2070,2027,2035,2038,0
-84,-66,1011,0,0,0,2062,2027,2016,1994,2006,2062,2037,2056,0
-84,-66,1011,0,0,0,2025,2065,2079,2074,2065,2037,2034,2043,0
-84,-66,1011,0,0,0,2047,2042,2043,2040,2043,2042,2033,2046,0
-84,-66,1011,0,0,0,2040,2038,2032,2020,2024,2061,2036,2044,0
-84,-67,1011,0,0,0,2019,2059,2075,2100,2074,2023,2038,2032,0
-84,-68,1011,0,0,0,2062,2025,2014,1998,2007,2064,2039,2054,0
-84,-68,1011,0,0,0,2011,2063,2078,2080,2064,2034,2035,2032,0
-84,-68,1011,0,0,0,2045,2037,2033,2041,2033,2047,2037,2045,0
-84,-68,1011,0,0,0,2038,2045,2038,2018,2043,2057,2034,2045,0
-84,-67,1011,0,0,0,2021,2056,2074,2084,2065,2032,2036,2033,0
-84,-66,1011,0,0,0,2066,2026,2013,1995,2012,2065,2043,2050,0
-84,-65,1011,0,0,0,2019,2069,2078,2087,2075,2029,2029,2036,0
-84,-65,1011,0,0,0,2017,2062,2076,2085,2069,2024,2035,2032,0
-84,-66,1011,0,0,0,2060,2026,2015,1993,2010,2065,2039,2062,0
-84,-67,1011,0,0,0,2021,2069,2077,2080,2070,2027,2039,2043,0
-84,-67,1011,0,0,0,2050,2038,2039,2038,2037,2055,2040,2048,0
-84,-68,1011,0,0,0,2048,2043,2044,2017,2030,2057,2038,2044,0
-84,-68,1011,0,0,0,2022,2064,2074,2093,2073,2026,2034,2035,0
-84,-68,1011,0,0,0,2066,2027,2012,1997,2011,2069,2041,2046,0
-84,-68,1011,0,0,0,2022,2066,2077,2083,2078,2038,2031,2046,0
-84,-68,1011,0,0,0,2053,2037,2038,2030,2035,2052,2043,2045,0
-84,-68,1011,0,0,0,2043,2048,2040,2025,2032,2056,2041,2045,0
-84,-68,1011,0,0,0,2023,2065,2074,2089,2070,2033,2035,2041,0
-84,-69,1011,0,0,0,2070,2028,2018,1998,2012,2066,2043,2054,0
-84,-69,1011,0,0,0,2015,2068,2079,2095,2074,2027,2034,2031,0
-84,-68,1011,0,0,0,2052,2035,2034,2022,2027,2058,2041,2046,0
-84,-68,1011,0,0,0,2038,2048,2047,2026,2052,2058,2039,2047,0
-84,-67,1011,0,0,0,2029,2060,2076,2084,2060,2026,2035,2031,0
-84,-66,1011,0,0,0,2059,2026,2014,1993,2010,2066,2032,2046,0
-84,-68,1011,0,0,0,2015,2066,2081,2088,2079,2028,2034,2038,0
-85,-70,1011,0,0,0,2051,2032,2028,2009,2026,2055,2043,2047,0
-85,-69,1011,0,0,0,2035,2049,2049,2050,2043,2049,2038,2045,0
-84,-69,1011,0,0,0,2029,2054,2066,2077,2063,2030,2036,2040,0
-84,-70,1011,0,0,0,2064,2029,2021,1985,2014,2068,2040,2051,0
-84,-69,1011,0,0,0,2034,2048,2044,2030,2040,2051,2036,2023,0
-84,-68,1011,0,0,0,2026,2054,2069,2086,2063,2028,2035,2017,0
-84,-67,1011,0,0,0,2063,2028,2018,1992,2007,2072,2035,2061,0
-84,-67,1011,0,0,0,2017,2069,2087,2097,2082,2029,2033,2043,0
-84,-67,1011,0,0,0,2058,2035,2035,2022,2019,2057,2045,2062,0
-84,-68,1011,0,0,0,2040,2051,2049,2043,2047,2055,2037,2053,0
-84,-68,1011,0,0,0,2031,2061,2069,2083,2068,2028,2038,2038,0
-84,-69,1011,0,0,0,2059,2031,2020,1994,2015,2071,2042,2060,0
-84,-69,1011,0,0,0,2017,2066,2082,2086,2079,2030,2034,2038,0
-84,-68,1011,0,0,0,2057,2035,2028,2015,2020,2057,2042,2054,0
-84,-68,1011,0,0,0,2035,2055,2054,2045,2055,2051,2041,2050,0
-84,-70,1011,0,0,0,2028,2054,2070,2075,2063,2030,2043,2047,0
-84,-71,1011,0,0,0,2064,2032,2022,1998,2012,2066,2042,2056,0
-84,-70,1011,0,0,0,2016,2069,2086,2102,2085,2026,2038,2041,0
-84,-69,1011,0,0,0,2061,2031,2025,2010,2019,2063,2039,2051,0
-84,-68,1011,0,0,0,2032,2057,2063,2052,2058,2052,2033,2046,0
-84,-66,1011,0,0,0,2033,2055,2064,2065,2051,2037,2041,2041,0
-84,-65,1011,0,0,0,2056,2031,2026,1999,2009,2068,2041,2047,0
-84,-66,1011,0,0,0,2012,2066,2079,2097,2086,2024,2031,2033,0
-84,-66,1011,0,0,0,2057,2023,2019,1993,2015,2060,2037,2049,0
-84,-67,1011,0,0,0,2031,2056,2060,2062,2066,2046,2040,2034,0
-84,-67,1011,0,0,0,2012,2068,2087,2093,2073,2028,2033,2031,0
-84,-67,1011,0,0,0,2056,2029,2022,2009,2017,2061,2038,2052,0
-84,-66,1011,0,0,0,2030,2055,2060,2045,2046,2044,2033,2038,0
-84,-66,1011,0,0,0,2030,2053,2061,2071,2058,2035,2033,2037,0
-84,-66,1011,0,0,0,2056,2029,2023,2002,2011,2067,2036,2055,0
-84,-65,1011,0,0,0,2016,2070,2083,2088,2087,2027,2039,2038,0
-84,-65,1011,0,0,0,2060,2033,2022,2014,2025,2068,2043,2058,0
-84,-66,1011,0,0,0,2031,2058,2058,2058,2050,2043,2042,2045,0
-83,-68,1011,0,0,0,2044,2053,2059,2074,2052,2037,2039,2043,0
-83,-68,1011,0,0,0,2053,2037,2027,2006,2023,2068,2044,2052,0
-83,-68,1011,0,0,0,2021,2068,2083,2097,2081,2026,2036,2036,0
-83,-68,1011,0,0,0,2060,2030,2022,1999,2013,2063,2043,2056,0
-83,-67,1011,0,0,0,2029,2060,2066,2053,2067,2043,2037,2044,0
-83,-66,1011,0,0,0,2038,2047,2055,2061,2050,2043,2039,2040,0
-83,-66,1011,0,0,0,2056,2036,2028,2010,2018,2066,2043,2055,0
-83,-66,1011,0,0,0,2020,2069,2087,2101,2078,2024,2039,2040,0
-83,-66,1011,0,0,0,2063,2031,2015,1996,2007,2068,2041,2054,0
-83,-67,1011,0,0,0,2023,2061,2071,2077,2067,2043,2044,2041,0
-83,-69,1011,0,0,0,2045,2046,2052,2056,2048,2046,2044,2039,0
-83,-71,1011,0,0,0,2049,2039,2033,2014,2026,2062,2047,2055,0
-83,-71,1011,0,0,0,2016,2063,2075,2084,2078,2026,2042,2036,0
-83,-69,1011,0,0,0,2058,2026,2014,1992,2005,2069,2040,2059,0
-83,-68,1011,0,0,0,2055,2041,2026,2002,2022,2070,2044,2054,0
-83,-67,1011,0,0,0,2014,2061,2082,2097,2073,2019,2031,2029,0
-83,-64,1011,0,0,0,2057,2026,2017,2008,2013,2058,2037,2051,0
-83,-62,1011,0,0,0,2025,2060,2060,2060,2068,2038,2035,2039,0
-83,-62,1011,0,0,0,2039,2047,2046,2056,2042,2043,2037,2039,0
-83,-64,1011,0,0,0,2045,2038,2033,2014,2021,2060,2041,2052,0
-83,-66,1011,0,0,0,2020,2062,2082,2092,2080,2024,2036,2038,0
-83,-67,1011,0,0,0,2068,2029,2019,1995,2007,2069,2042,2049,0
-83,-68,1011,0,0,0,2023,2065,2065,2072,2075,2042,2039,2038,0
-83,-69,1011,0,0,0,2045,2046,2049,2058,2039,2046,2045,2038,0
-83,-68,1011,0,0,0,2050,2040,2033,2022,2033,2063,2044,2058,0
-83,-68,1011,0,0,0,2021,2065,2077,2098,2076,2024,2036,2035,0
-83,-67,1011,0,0,0,2067,2025,2019,1998,2018,2075,2044,2055,0
-83,-67,1011,0,0,0,2021,2067,2071,2074,2074,2038,2036,2040,0
-83,-67,1011,0,0,0,2051,2042,2047,2052,2031,2051,2035,2046,0
-83,-67,1011,0,0,0,2045,2043,2035,2016,2034,2063,2042,2055,0
-83,-66,1011,0,0,0,2021,2061,2075,2098,2076,2030,2035,2030,0
-83,-66,1011,0,0,0,2066,2030,2020,1991,2008,2073,2043,2053,0
-83,-67,1011,0,0,0,2020,2068,2072,2083,2066,2029,2037,2037,0
-83,-67,1011,0,0,0,2048,2040,2040,2033,2041,2055,2034,2043,0
-83,-66,1011,0,0,0,2039,2046,2038,2018,2043,2056,2037,2046,0
-83,-67,1011,0,0,0,2027,2066,2071,2091,2068,2032,2041,2038,0
-84,-70,1010,0,0,0,2049,2041,2044,2048,2042,2047,2044,2041,0
-84,-74,1010,0,0,0,2049,2040,2037,2021,2037,2060,2041,2046,0
-83,-75,1010,0,0,0,2023,2061,2079,2102,2076,2019,2038,2030,0
-83,-73,1010,0,0,0,2062,2025,2017,1986,2007,2071,2045,2054,0
-83,-71,1010,-1,0,0,2017,2062,2071,2076,2067,2036,2037,2034,0
-84,-75,1010,0,0,0,2048,2035,2036,2038,2037,2050,2042,2044,0
-84,-80,1010,1,0,0,2041,2043,2042,2017,2031,2061,2039,2045,0
-85,-80,1010,1,-1,0,2021,2061,2071,2092,2065,2029,2043,2030,0
-84,-77,1010,1,-1,0,2069,2026,2018,2000,2013,2075,2055,2059,0
-83,-77,1010,1,-1,0,2019,2067,2080,2085,2076,2033,2052,2036,0
-82,-79,1010,2,-1,0,2051,2043,2037,2031,2031,2056,2059,2045,0
-83,-75,1011,2,-1,0,2040,2048,2043,2029,2042,2058,2073,2050,0
-83,-69,1011,1,-1,0,2023,2057,2069,2086,2066,2029,2049,2033,0
-82,-65,1011,0,-1,0,2060,2027,2015,1988,2008,2075,2045,2053,0
-82,-62,1012,0,-1,0,2018,2066,2076,2092,2070,2027,2040,2035,0
-82,-59,1012,0,-1,0,2055,2040,2025,2028,2034,2059,2042,2048,0
-82,-61,1012,0,-1,0,2041,2047,2047,2041,2043,2057,2049,2047,0
-82,-65,1011,0,-1,0,2026,2058,2069,2079,2061,2035,2041,2038,0
-82,-67,1011,0,-1,0,2064,2029,2022,1998,2012,2074,2036,2057,0
-82,-64,1011,0,-1,0,2018,2069,2081,2089,2078,2022,2038,2036,0
-81,-61,1011,0,-1,0,2021,2057,2070,2089,2081,2030,2037,2037,0
-81,-61,1011,0,-1,0,2063,2032,2016,1998,2011,2073,2045,2056,0
-81,-62,1011,0,-1,0,2023,2066,2082,2087,2079,2031,2046,2031,0
-81,-62,1011,0,-1,0,2049,2033,2031,2031,2020,2058,2043,2045,0
-81,-60,1011,0,-1,0,2037,2049,2049,2027,2044,2051,2042,2053,0
-81,-59,1011,0,-1,0,2024,2054,2066,2089,2059,2031,2038,2033,0
-81,-60,1011,0,-1,0,2062,2030,2016,1993,2012,2076,2045,2050,0
-82,-61,1011,0,-1,0,2014,2064,2076,2091,2078,2023,2036,2033,0
-82,-61,1011,0,-1,0,2054,2033,2024,2037,2021,2044,2048,2049,0
-82,-62,1011,0,-1,0,2038,2051,2051,2039,2043,2055,2039,2039,0
-82,-63,1011,0,-1,0,2022,2054,2062,2084,2055,2033,2043,2037,0
-82,-64,1011,0,-1,0,2063,2031,2021,2001,2018,2072,2048,2057,0
-82,-64,1011,0,-1,0,2016,2067,2082,2092,2082,2030,2039,2031,0
-82,-64,1011,0,-1,0,2063,2030,2029,2012,2023,2063,2041,2055,0
-82,-63,1011,0,-1,0,2035,2052,2052,2046,2053,2052,2046,2046,0
-82,-62,1011,0,-1,0,2031,2053,2061,2086,2053,2035,2040,2038,0
-82,-62,1011,0,-1,0,2058,2035,2026,1997,2015,2068,2045,2057,0
-82,-63,1011,0,-1,0,2012,2068,2076,2084,2075,2029,2038,2036,0
-82,-63,1011,0,-1,0,2061,2031,2022,2009,2024,2062,2049,2045,0
-82,-63,1011,0,-1,0,2031,2056,2055,2055,2052,2048,2039,2040,0
-82,-63,1011,0,-1,0,2033,2051,2060,2065,2054,2037,2040,2041,0
-82,-63,1011,0,-1,0,2058,2033,2026,2017,2019,2062,2046,2051,0
-82,-63,1011,0,-1,0,2037,2055,2057,2046,2053,2050,2040,2042,0
-82,-63,1011,0,-1,0,2035,2053,2061,2070,2059,2034,2042,2042,0
-82,-64,1011,0,-1,0,2052,2035,2022,2004,2016,2069,2052,2057,0
-82,-64,1011,0,-1,0,2016,2064,2079,2099,2085,2029,2040,2034,0
-82,-64,1011,0,-1,0,2059,2031,2024,2016,2012,2062,2041,2049,0
-82,-64,1011,0,-1,0,2034,2057,2059,2055,2062,2049,2042,2041,0
-82,-64,1011,0,-1,0,2038,2051,2054,2066,2050,2034,2042,2035,0
-82,-64,1011,0,-1,0,2055,2034,2020,1992,2020,2068,2045,2055,0
-82,-64,1011,0,-1,0,2011,2062,2076,2099,2078,2026,2037,2029,0
-82,-64,1011,0,-1,0,2056,2027,2019,2007,2014,2069,2043,2050,0
-82,-64,1011,0,-1,0,2026,2055,2058,2069,2058,2040,2040,2038,0
-82,-65,1011,0,-1,0,2037,2049,2054,2060,2053,2039,2042,2036,0
-82,-65,1011,0,-1,0,2055,2039,2028,2000,2024,2069,2051,2054,0
-82,-65,1011,0,-1,0,2018,2065,2078,2100,2080,2031,2039,2037,0
-82,-65,1011,0,-1,0,2064,2030,2023,2005,2018,2068,2045,2059,0
-82,-65,1011,0,-1,0,2023,2060,2066,2067,2068,2046,2045,2041,0
-82,-65,1011,0,-1,0,2042,2049,2050,2056,2048,2048,2043,2041,0
-82,-66,1011,0,-1,0,2058,2036,2031,2006,2023,2068,2045,2053,0
-82,-66,1011,0,-1,0,2018,2063,2078,2096,2083,2021,2044,2031,0
-82,-66,1011,0,-1,0,2067,2029,2021,2001,2016,2072,2048,2054,0
-82,-66,1011,0,-1,0,2055,2035,2025,2002,2021,2071,2047,2054,0
-82,-66,1011,0,-1,0,2016,2065,2079,2101,2074,2025,2042,2033,0
-82,-65,1011,0,-1,0,2061,2030,2019,2018,2013,2065,2048,2050,0
-82,-64,1011,0,-1,0,2030,2057,2066,2066,2060,2046,2044,2040,0
-82,-65,1011,0,-1,0,2042,2048,2048,2069,2043,2041,2046,2042,0
-82,-65,1011,0,-1,0,2051,2040,2026,2009,2024,2063,2049,2057,0
-82,-65,1011,0,-1,0,2021,2064,2078,2094,2082,2025,2044,2037,0
-82,-65,1011,0,-1,0,2060,2028,2026,2000,2008,2069,2043,2052,0
-82,-65,1011,0,-1,0,2020,2059,2063,2071,2071,2039,2042,2035,0
-82,-65,1011,0,-1,0,2039,2034,2041,2056,2039,2047,2039,2038,0
-82,-65,1011,0,-1,0,2050,2037,2032,2018,2028,2064,2042,2047,0
-82,-64,1011,0,-1,0,2019,2063,2069,2103,2076,2028,2037,2029,0
-82,-64,1011,0,-1,0,2060,2027,2015,1993,2005,2064,2051,2050,0
-82,-64,1011,0,-1,0,2018,2058,2069,2071,2074,2034,2043,2037,0
-82,-64,1011,0,-1,0,2041,2043,2042,2053,2029,2041,2048,2044,0
-82,-64,1011,0,-1,0,2051,2043,2035,2020,2042,2065,2048,2056,0
-82,-64,1011,0,-1,0,2019,2061,2073,2102,2083,2029,2043,2029,0
-82,-63,1011,0,-1,0,2064,2030,2017,1987,2011,2075,2051,2051,0
-82,-62,1011,0,-1,0,2023,2067,2073,2083,2076,2039,2044,2033,0
-82,-62,1011,0,-1,0,2053,2044,2039,2049,2032,2054,2049,2046,0
-82,-62,1011,0,-1,0,2049,2045,2044,2025,2032,2058,2047,2051,0
-82,-62,1011,0,-1,0,2025,2061,2068,2080,2070,2041,2044,2043,0
-82,-62,1011,0,-1,0,2046,2044,2042,2060,2038,2038,2045,2043,0
-82,-62,1011,0,-1,0,2050,2044,2036,2030,2038,2066,2046,2050,0
-82,-63,1011,0,-1,0,2022,2065,2075,2089,2072,2030,2042,2032,0
-82,-63,1011,0,-1,0,2059,2030,2018,1999,2011,2071,2048,2052,0
-82,-63,1011,0,-1,0,2026,2069,2072,2079,2081,2035,2043,2039,0
-82,-63,1011,0,-1,0,2046,2036,2042,2044,2032,2054,2043,2048,0
-82,-64,1011,0,-1,0,2044,2045,2041,2025,2035,2061,2046,2055,0
-82,-64,1011,0,-1,0,2022,2062,2072,2102,2070,2030,2044,2034,0
-82,-64,1011,0,-1,0,2060,2031,2022,1993,2014,2072,2044,2052,0
-82,-64,1011,0,-1,0,2017,2064,2074,2087,2079,2031,2039,2031,0
-82,-64,1011,0,-1,0,2041,2035,2037,2029,2021,2048,2043,2045,0
-82,-64,1011,0,-1,0,2042,2043,2044,2028,2035,2056,2045,2041,0
-82,-65,1011,0,-1,0,2021,2056,2065,2088,2063,2028,2045,2028,0
-82,-66,1011,0,-1,0,2061,2024,2016,1997,2009,2074,2048,2053,0
-82,-66,1011,0,-1,0,2017,2065,2077,2089,2074,2035,2042,2034,0
-82,-65,1011,0,-1,0,2051,2032,2031,2031,2023,2053,2048,2047,0
-82,-64,1011,0,-1,0,2042,2043,2045,2038,2045,2056,2052,2046,0
-82,-63,1011,0,-1,0,2023,2060,2066,2084,2067,2032,2044,2033,0
-82,-62,1011,0,-1,0,2065,2030,2024,1999,2013,2078,2049,2054,0
-82,-61,1011,0,-1,0,2015,2064,2078,2091,2085,2028,2039,2034,0
-82,-61,1011,0,-1,0,2022,2062,2067,2100,2076,2027,2041,2034,0
-82,-61,1011,0,-1,0,2061,2030,2022,1996,2009,2075,2050,2055,0
-82,-62,1011,0,-1,0,2020,2068,2070,2101,2078,2034,2041,2037,0
-82,-64,1011,0,-1,0,2051,2037,2034,2028,2020,2051,2047,2045,0
-82,-65,1011,0,-1,0,2042,2048,2041,2047,2045,2054,2054,2046,0
-82,-65,1011,0,-1,0,2026,2059,2068,2082,2065,2031,2039,2036,0
-82,-65,1011,0,-1,0,2061,2029,2019,2009,2013,2071,2052,2055,0
-82,-65,1011,0,-1,0,2017,2067,2076,2096,2087,2026,2041,2037,0
-82,-65,1011,0,-1,0,2055,2037,2031,2029,2019,2059,2044,2050,0
-82,-65,1011,0,-1,0,2034,2049,2052,2040,2052,2062,2042,2044,0
-82,-65,1011,0,-1,0,2026,2053,2062,2088,2061,2033,2042,2038,0
-82,-65,1011,0,-1,0,2063,2036,2022,2011,2014,2071,2051,2052,0
-82,-65,1011,0,-1,0,2014,2066,2079,2101,2080,2024,2045,2035,0
-82,-65,1011,0,-1,0,2055,2029,2029,2016,2017,2059,2046,2046,0
-82,-65,1011,0,-1,0,2031,2050,2048,2051,2051,2052,2042,2041,0
-82,-65,1011,0,-1,0,2028,2054,2060,2075,2054,2036,2043,2041,0
-82,-65,1011,0,-1,0,2053,2029,2024,1996,2013,2068,2043,2055,0
-82,-65,1011,0,-1,0,2018,2063,2077,2099,2084,2024,2040,2033,0
-82,-65,1011,0,-1,0,2060,2030,2026,2018,2024,2063,2052,2051,0
-82,-65,1011,0,-1,0,2030,2058,2054,2052,2054,2053,2045,2040,0
-82,-66,1011,0,-1,0,2032,2050,2055,2083,2046,2038,2046,2036,0
-82,-67,1011,0,-1,0,2059,2035,2026,2027,2029,2057,2051,2053,0
-82,-67,1011,0,-1,0,2037,2052,2048,2052,2053,2050,2042,2051,0
-81,-68,1011,0,-1,0,2032,2051,2064,2079,2053,2032,2047,2036,0
-81,-66,1012,0,-1,0,2057,2035,2024,1999,2017,2075,2052,2049,0
-82,-62,1012,0,-1,0,2018,2065,2079,2097,2083,2033,2037,2038,0
-82,-64,1012,0,-1,0,2061,2035,2024,2021,2020,2066,2048,2056,0
-82,-69,1012,0,-1,0,2033,2059,2056,2055,2055,2048,2044,2038,0
-82,-70,1012,0,-1,0,2036,2048,2059,2079,2050,2035,2044,2047,0
-82,-67,1012,0,-1,0,2058,2030,2024,2011,2015,2078,2049,2049,0
-82,-66,1012,0,-1,0,2021,2064,2079,2102,2088,2029,2042,2033,0
-82,-67,1012,0,-1,0,2062,2030,2023,2013,2017,2064,2051,2048,0
-82,-67,1012,0,-1,0,2029,2056,2062,2059,2060,2044,2047,2043,0
-82,-66,1012,0,-1,0,2035,2048,2048,2068,2051,2046,2042,2044,0
-82,-67,1012,0,-1,0,2053,2037,2026,2005,2025,2072,2046,2057,0
-82,-69,1012,0,-1,0,2018,2064,2081,2091,2087,2029,2040,2025,0
-82,-68,1012,0,-1,0,2064,2027,2017,2019,1996,2061,2041,2049,0
-82,-67,1012,0,-1,0,2023,2060,2059,2060,2060,2042,2038,2039,0
-82,-67,1012,0,-1,0,2043,2043,2051,2065,2041,2036,2042,2038,0
-82,-67,1012,0,-1,0,2049,2037,2030,2011,2018,2069,2046,2050,0
-82,-67,1012,0,-1,0,2018,2067,2076,2100,2079,2028,2044,2030,0
-82,-67,1012,0,-1,0,2065,2029,2020,2017,2015,2069,2049,2055,0
-82,-67,1012,0,-1,0,2049,2033,2030,2006,2015,2070,2050,2047,0
-82,-67,1012,0,-1,0,2015,2063,2072,2089,2079,2026,2044,2036,0
-82,-68,1012,0,-1,0,2064,2030,2023,2017,2007,2065,2051,2055,0
-82,-68,1012,0,-1,0,2028,2061,2065,2066,2064,2041,2044,2045,0
-82,-68,1012,0,-1,0,2039,2045,2049,2064,2044,2043,2051,2039,0
-82,-68,1012,0,-1,0,2054,2040,2030,2019,2024,2070,2048,2057,0
-82,-68,1012,0,-1,0,2022,2069,2075,2099,2080,2022,2042,2034,0
-82,-68,1012,0,-1,0,2064,2029,2020,2008,2012,2073,2053,2046,0
-82,-68,1012,0,-1,0,2026,2062,2068,2074,2070,2042,2045,2040,0
-82,-67,1012,0,-1,0,2044,2047,2044,2064,2036,2044,2047,2047,0
-82,-66,1012,0,-1,0,2051,2041,2033,2020,2027,2059,2045,2048,0
-82,-66,1012,0,-1,0,2018,2063,2076,2091,2079,2031,2043,2031,0
-82,-67,1012,0,-1,0,2063,2028,2024,2011,2022,2072,2051,2055,0
-82,-67,1012,0,-1,0,2023,2064,2068,2075,2071,2041,2041,2039,0
-82,-67,1012,0,-1,0,2044,2044,2042,2047,2046,2048,2049,2046,0
-82,-67,1012,0,-1,0,2047,2042,2038,2025,2032,2068,2047,2052,0
-82,-66,1012,0,-1,0,2019,2060,2069,2098,2076,2023,2035,2029,0
-82,-65,1012,0,-1,0,2061,2027,2018,2002,2010,2073,2049,2054,0
-82,-66,1012,0,-1,0,2020,2060,2069,2086,2067,2037,2042,2034,0
-82,-66,1012,0,-1,0,2049,2038,2037,2051,2034,2049,2043,2041,0
-82,-66,1012,0,-1,0,2042,2041,2035,2020,2034,2061,2042,2046,0
-82,-67,1012,0,-1,0,2018,2059,2065,2098,2071,2023,2042,2033,0
-82,-67,1012,0,-1,0,2043,2040,2043,2059,2040,2043,2042,2044,0
-82,-68,1012,0,-1,0,2046,2041,2031,2010,2032,2065,2045,2051,0
-82,-69,1012,0,-1,0,2021,2063,2077,2096,2071,2025,2046,2031,0
-82,-67,1012,0,-1,0,2066,2029,2021,2004,2015,2072,2055,2057,0
-82,-67,1012,0,-1,0,2023,2066,2066,2086,2070,2034,2050,2041,0
-82,-69,1012,0,-1,0,2045,2042,2040,2050,2036,2057,2044,2045,0
-82,-69,1012,0,-1,0,2046,2044,2038,2030,2036,2059,2049,2046,0
-82,-67,1012,0,-1,0,2022,2063,2071,2099,2067,2025,2045,2036,0
-82,-66,1012,0,-1,0,2066,2033,2018,2004,2012,2074,2050,2053,0
-82,-67,1012,0,-1,0,2021,2063,2068,2079,2073,2034,2043,2038,0
-82,-68,1012,0,-1,0,2050,2037,2038,2042,2037,2054,2048,2043,0
-82,-68,1012,0,-1,0,2048,2045,2042,2039,2044,2059,2054,2051,0
-82,-68,1012,0,-1,0,2028,2060,2073,2098,2075,2028,2046,2030,0
-82,-68,1012,0,-1,0,2064,2036,2017,2003,2010,2080,2052,2061,0
-82,-68,1012,0,-1,0,2017,2060,2073,2098,2074,2031,2045,2036,0
-82,-68,1012,0,-1,0,2055,2042,2033,2040,2027,2058,2047,2046,0
-82,-68,1012,0,-1,0,2039,2052,2048,2036,2046,2064,2046,2047,0
-82,-68,1012,0,-1,0,2026,2055,2067,2087,2065,2029,2041,2033,0
-82,-68,1012,0,-1,0,2058,2030,2021,1999,2013,2070,2044,2048,0
-82,-68,1012,0,-1,0,2016,2064,2073,2100,2078,2028,2044,2029,0
-82,-68,1012,0,-1,0,2021,2058,2067,2088,2067,2031,2036,2030,0
-82,-68,1012,0,-1,0,2058,2030,2019,2004,2006,2071,2048,2053,0
-82,-68,1012,0,-1,0,2018,2061,2068,2079,2076,2032,2038,2033,0
-82,-68,1012,0,-1,0,2048,2036,2034,2035,2027,2056,2045,2050,0
-82,-68,1012,0,-1,0,2041,2045,2043,2030,2039,2057,2045,2044,0
-82,-68,1012,0,-1,0,2029,2053,2068,2083,2064,2028,2041,2030,0
-82,-68,1012,0,-1,0,2065,2031,2020,2002,2012,2075,2053,2057,0
-82,-67,1012,0,-1,0,2019,2065,2076,2106,2086,2030,2046,2037,0
-82,-67,1012,0,-1,0,2052,2035,2033,2034,2017,2060,2049,2046,0
-82,-67,1012,0,-1,0,2036,2052,2052,2047,2050,2051,2045,2047,0
-82,-67,1012,0,-1,0,2029,2052,2060,2079,2060,2032,2046,2032,0
-82,-67,1012,0,-1,0,2065,2036,2026,2006,2017,2079,2051,2055,0
-82,-67,1012,0,-1,0,2018,2068,2074,2099,2088,2030,2041,2034,0
-82,-67,1012,0,-1,0,2056,2034,2027,2020,2021,2065,2048,2050,0
-82,-68,1012,0,-1,0,2036,2055,2054,2044,2049,2058,2048,2045,0
-82,-68,1012,0,-1,0,2031,2051,2058,2085,2065,2036,2048,2042,0
-82,-67,1012,0,-1,0,2062,2036,2021,2010,2007,2068,2054,2052,0
-82,-67,1012,0,-1,0,2016,2065,2074,2086,2083,2032,2038,2033,0
-82,-67,1012,0,-1,0,2054,2029,2029,2032,2016,2072,2050,2046,0
-82,-67,1012,0,-1,0,2034,2053,2057,2056,2061,2045,2045,2042,0
-82,-67,1012,0,-1,0,2035,2050,2056,2076,2049,2046,2041,2039,0
-82,-68,1012,0,-1,0,2057,2033,2024,2014,2067,2077,2038,2049,0
-82,-68,1012,0,-1,0,2042,2054,2049,2000,2082,1917,1773,2051,0
-82,-68,1012,-1,-1,0,2048,2051,2055,1957,1998,2097,1386,2086,0
-83,-70,1016,-6,0,0,2060,2026,2027,2006,1998,2524,1981,2085,0
-93,-81,1013,-3,-3,0,2028,2091,2094,2077,2396,429,2049,2021,0
-106,-93,1027,3,-12,0,2027,1996,1881,2162,2569,2022,2075,2220,0
-118,-95,1068,3,-28,-1,2046,2027,2817,2872,4092,2605,2273,1884,0
-120,-97,1079,-3,-41,0,2094,2029,1997,2253,2027,2202,2403,1905,0
-79,-105,1052,31,-41,9,2243,1938,1460,1665,1100,1203,2291,2235,0
-37,-18,1037,49,-45,28,1732,2180,2063,2198,1625,965,1915,1951,0
6,37,1025,46,-48,41,1989,2107,2252,2288,1777,1577,1965,1813,0
65,45,987,33,-44,45,1979,2083,1657,2112,1819,1453,1972,1944,0
104,31,958,27,-35,42,2016,2035,2174,2068,1834,1690,1979,1943,0
120,33,952,22,-28,38,2052,2031,2069,2020,1849,1967,2005,2024,0
137,35,958,17,-22,33,2023,2051,2067,2102,1954,1913,2000,2027,0
155,36,962,14,-17,27,2038,2002,2036,1999,1903,1971,2027,2026,0
165,45,970,12,-13,22,2017,2050,2050,2069,1995,1954,2022,2015,0
178,55,977,9,-11,18,2039,2043,2044,2092,1989,1960,2025,2019,0
190,59,978,8,-9,14,2063,2045,2036,2039,1978,1980,2027,2051,0
199,65,978,7,-7,11,2022,2064,2061,2120,2043,1964,2019,2012,0
206,72,979,5,-6,9,2076,2030,2026,2024,1979,2010,2033,2059,0
212,78,980,4,-5,7,2069,2035,2030,2025,1997,2008,2029,2054,0
216,84,981,3,-4,5,2002,2058,2057,2119,2053,1967,2019,2014,0
220,89,982,2,-3,3,2085,2030,2040,2041,1989,2001,2032,2059,0
223,94,983,2,-2,2,2017,2052,2051,2095,2057,1958,2028,2030,0
225,101,983,1,-2,1,2038,2046,2049,2081,2031,1969,2026,2030,0
227,106,984,0,-2,1,2054,2041,2040,2049,2019,1996,2044,2052,0
230,105,982,0,-1,1,2009,2059,2058,2116,2076,1976,2025,2021,0
231,102,982,0,0,0,2074,2028,2040,2027,1996,1989,2034,2065,0
230,102,983,0,0,0,2018,2062,2055,2096,2065,1962,2028,2032,0
229,104,985,0,0,0,2041,2042,2052,2083,2032,1988,2036,2036,0
230,106,986,0,0,0,2049,2040,2038,2039,2026,1998,2037,2049,0
230,106,985,0,0,0,2016,2063,2057,2121,2077,1969,2025,2009,0
232,105,984,0,0,0,2067,2031,2031,2026,1992,2017,2035,2063,0
233,105,984,0,0,0,2017,2055,2047,2102,2069,1967,2027,2026,0
233,106,985,0,0,0,2043,2036,2040,2069,2043,1995,2030,2042,0
233,108,985,0,0,0,2050,2050,2044,2052,2039,2004,2036,2057,0
234,107,983,0,0,0,2019,2057,2061,2129,2073,1978,2024,2008,0
235,105,981,0,0,0,2074,2026,2032,2025,2002,2030,2039,2064,0
235,106,981,0,0,0,2019,2063,2062,2111,2083,1989,2027,2019,0
234,109,983,0,0,0,2048,2029,2041,2061,2015,2000,2030,2044,0
231,111,985,0,0,0,2078,2040,2046,2029,1999,2023,2033,2065,0
229,112,986,0,0,0,2016,2065,2056,2102,2072,1987,2032,2028,0
228,111,986,0,0,0,2050,2046,2049,2073,2029,1984,2033,2015,0
228,109,986,0,0,0,2047,2042,2040,2055,2034,2026,2038,2045,0
230,104,984,0,0,-1,2019,2055,2053,2124,2071,1988,2024,2007,0
227,104,984,0,0,-2,2070,2026,2030,2015,1996,2030,2032,2064,0
224,111,986,0,0,-1,2010,2062,2056,2099,2082,1978,2024,2023,0
224,118,988,0,0,0,2050,2039,2037,2066,2029,2000,2034,2032,0
224,118,988,0,0,0,2038,2045,2048,2054,2034,2018,2034,2047,0
225,115,986,0,0,0,2012,2056,2062,2119,2065,2000,2025,1995,0
226,111,984,0,0,-1,2078,2033,2027,2032,2006,2042,2036,2073,0
224,112,985,0,0,-1,1990,2062,2052,2111,2077,2001,2032,2026,0
223,116,987,0,0,0,2041,2034,2041,2046,2015,2003,2033,2051,0
221,121,989,0,0,0,2036,2055,2051,2064,2038,2008,2034,2041,0
221,121,990,0,0,0,2019,2058,2061,2126,2080,1999,2033,2006,0
220,118,988,0,0,0,2081,2036,2040,2026,2007,2037,2039,2075,0
221,116,987,0,0,0,2002,2069,2061,2119,2092,2003,2025,2006,0
221,118,986,0,0,0,2077,2038,2035,2057,2011,2027,2036,2053,0
221,119,986,0,0,0,2032,2052,2043,2070,2053,2025,2034,2045,0
220,119,987,0,0,0,2019,2052,2056,2112,2074,2009,2033,2011,0
219,117,986,0,0,0,2066,2029,2037,2023,1995,2043,2036,2067,0
219,116,986,0,0,0,2002,2070,2066,2121,2095,1992,2022,2017,0
219,117,987,0,0,0,2013,2053,2057,2113,2075,1991,2027,2018,0
219,117,986,0,0,0,2063,2032,2035,2034,2007,2042,2041,2066,0
220,117,986,0,0,0,2007,2066,2061,2107,2096,1994,2028,2018,0
220,118,986,0,0,0,2057,2037,2042,2051,2013,2024,2035,2056,0
219,118,986,0,0,0,2033,2051,2042,2062,2034,2024,2029,2049,0
219,118,987,0,0,0,2019,2055,2053,2117,2062,1998,2023,2024,0
219,118,987,0,0,0,2068,2027,2030,2011,2009,2043,2036,2067,0
219,117,987,0,0,0,2007,2066,2060,2126,2095,2003,2023,2017,0
218,116,986,0,0,0,2066,2030,2039,2040,2011,2035,2036,2034,0
219,116,986,0,0,0,2027,2052,2046,2079,2048,2028,2030,2039,0
219,118,986,0,0,0,2031,2045,2052,2105,2064,2010,2029,2011,0
219,118,986,0,0,0,2057,2029,2034,2024,2019,2052,2036,2061,0
219,118,987,0,0,0,2016,2066,2061,2120,2090,2005,2029,2014,0
219,118,987,0,0,0,2068,2033,2035,2050,2008,2036,2035,2050,0
219,118,987,0,0,0,2033,2053,2050,2082,2059,2016,2036,2047,0
220,118,987,0,0,0,2032,2051,2053,2104,2050,2014,2032,2031,0
219,118,987,0,0,0,2058,2036,2038,2033,2017,2032,2046,2066,0
219,118,987,0,0,0,2003,2064,2059,2118,2083,1993,2023,2011,0
219,118,987,0,0,0,2078,2039,2036,2046,2008,2035,2032,2062,0
218,120,989,0,0,0,2032,2060,2049,2072,2059,2015,2033,2039,0
218,122,990,0,0,0,2043,2054,2053,2108,2053,1950,2030,2007,0
218,121,989,-1,-1,0,2075,2034,2040,2062,2025,2003,2035,2034,0
221,112,985,0,-1,0,2038,2060,2053,2089,2072,2015,2031,2025,0
222,111,981,0,0,0,2043,2054,2054,2108,2059,2008,2032,2002,0
226,112,978,1,1,0,2064,2030,2035,2007,1992,2057,2037,2070,0
226,120,979,0,1,0,2005,2063,2060,2102,2079,2007,2026,2027,0
222,126,983,-1,0,0,2061,2026,2035,2030,1999,2044,2026,2066,0
217,124,987,-1,0,0,2026,2056,2046,2089,2060,2012,2034,2044,0
215,115,987,0,0,0,2031,2045,2051,2094,2059,2017,2036,2025,0
216,111,985,2,0,0,2052,2024,2030,2020,2005,2061,2039,2073,0
211,124,989,0,0,0,2005,2071,2064,2123,2089,1996,2021,2023,0
206,131,994,-1,-1,0,2074,2027,2035,2044,1999,2049,2034,2064,0
206,124,993,0,-1,0,2028,2058,2059,2095,2073,2033,2033,2033,0
207,117,990,1,-1,0,2042,2045,2050,2086,2050,2030,2033,2041,0
208,120,989,1,0,0,2065,2042,2036,2032,2016,2062,2036,2079,0
208,126,988,0,0,0,2009,2063,2065,2131,2092,2009,2022,2015,0
207,128,988,0,0,0,2073,2032,2033,2027,2000,2066,2037,2075,0
207,125,988,0,0,0,2019,2065,2055,2098,2078,2025,2034,2039,0
206,125,990,0,0,0,2029,2040,2042,2083,2040,2025,2033,2037,0
206,124,991,0,0,0,2062,2043,2041,2031,2029,2050,2036,2062,0
205,123,990,0,0,0,2007,2065,2061,2128,2088,2015,2026,2007,0
206,123,989,0,0,0,2071,2033,2031,2016,2002,2055,2041,2071,0
206,125,989,0,0,0,2061,2040,2036,2037,2012,2063,2038,2071,0
206,122,989,0,0,0,2006,2064,2061,2131,2077,2010,2019,2019,0
205,121,990,1,0,0,2081,2030,2038,2034,2004,2054,2038,2062,0
204,126,990,0,0,0,2017,2065,2055,2092,2075,2026,2036,2036,0
207,125,988,0,0,0,2043,2048,2046,2088,2042,2030,2036,2031,0
209,121,985,0,0,0,2060,2037,2040,2032,2026,2067,2041,2062,0
210,121,985,0,0,0,2009,2063,2060,2117,2081,2014,2024,2020,0
207,123,988,0,0,0,2073,2031,2035,2024,2003,2056,2039,2054,0
207,124,989,0,0,0,2015,2060,2056,2101,2076,2025,2026,2020,0
208,125,989,0,0,0,2040,2042,2043,2079,2035,2036,2024,2034,0
208,127,989,0,0,0,2053,2041,2040,2050,2028,2056,2039,2055,0
208,129,988,0,0,0,2006,2060,2057,2117,2078,2012,2018,1998,0
208,129,987,0,0,0,2068,2024,2028,2014,2002,2068,2034,2069,0
210,128,987,0,0,0,2002,2057,2055,2100,2079,2015,2025,2021,0
209,127,988,0,0,0,2045,2035,2040,2065,2017,2037,2033,2043,0
209,126,988,0,0,0,2056,2050,2041,2047,2031,2059,2037,2056,0
208,125,988,0,0,0,2016,2060,2061,2128,2085,2017,2025,2012,0
209,126,988,0,0,0,2094,2035,2029,2020,1999,2059,2042,2068,0
210,127,988,0,0,0,2016,2067,2061,2108,2082,2020,2029,2019,0
209,127,988,0,0,0,2056,2040,2046,2048,2020,2056,2036,2036,0
209,127,987,0,0,0,2045,2045,2042,2059,2046,2051,2036,2066,0
209,127,987,0,0,0,2009,2063,2056,2102,2075,2031,2023,2019,0
208,128,987,0,0,0,2050,2037,2042,2073,2030,2035,2030,2046,0
208,129,988,0,0,0,2059,2051,2042,2050,2034,2052,2040,2043,0
208,128,988,0,0,0,2012,2062,2061,2124,2091,2019,2029,2017,0
208,127,988,0,0,0,2072,2028,2032,2019,1992,2067,2038,2080,0
208,126,988,0,0,0,2019,2071,2058,2122,2087,2019,2029,2030,0
209,125,988,0,0,0,2053,2038,2045,2054,2026,2055,2032,2043,0
208,126,988,0,0,0,2042,2046,2043,2049,2033,2052,2036,2053,0
208,126,988,0,0,0,2022,2065,2063,2120,2080,2028,2035,2003,0
208,125,988,0,0,0,2072,2028,2031,2013,1999,2074,2040,2067,0
207,123,988,0,0,0,2006,2071,2064,2117,2094,2019,2031,2021,0
207,121,989,0,0,0,2057,2036,2033,2054,2016,2048,2026,2041,0
206,123,989,0,0,0,2032,2043,2040,2052,2039,2048,2030,2052,0
207,126,989,0,0,0,2021,2064,2060,2120,2080,2020,2029,2003,0
207,126,988,0,0,0,2070,2030,2029,2018,1999,2070,2032,2078,0
207,125,987,0,0,0,2006,2071,2063,2122,2091,2019,2029,2018,0
207,126,988,0,0,0,2055,2031,2034,2041,2017,2059,2035,2056,0
206,128,989,0,0,0,2035,2057,2047,2062,2045,2052,2036,2049,0
205,127,990,0,0,0,2025,2057,2060,2099,2070,2023,2029,2010,0
204,126,990,0,0,0,2071,2035,2032,2023,2002,2072,2038,2059,0
205,122,989,0,0,0,2006,2069,2063,2124,2096,2018,2028,2019,0
205,123,989,0,0,0,2012,2059,2061,2119,2074,2027,2024,2016,0
205,126,989,0,0,0,2068,2029,2025,2016,1996,2072,2036,2067,0
204,128,989,0,0,0,2011,2062,2062,2118,2103,2020,2030,2019,0
206,126,988,0,0,0,2068,2035,2042,2051,2019,2057,2039,2056,0
207,123,986,0,0,0,2038,2055,2047,2060,2077,2049,2035,2058,0
207,124,986,0,0,0,2016,2054,2054,2102,2060,2036,2026,2023,0
206,125,987,-1,0,0,2081,2031,2030,2025,2008,2084,2039,2067,0
204,123,987,-1,0,-1,2006,2067,2063,2132,2086,2012,2028,2013,0
203,121,987,0,0,-2,2064,2033,2038,2057,2004,2043,2044,2047,0
203,121,990,0,0,-1,2033,2054,2051,2063,2057,2024,2029,2046,0
203,123,993,0,0,-1,2023,2047,2053,2100,2066,2013,2026,2030,0
200,126,993,0,-1,0,2075,2032,2036,2031,2009,2065,2037,2073,0
200,125,989,1,-1,0,2000,2062,2060,2115,2112,2021,2026,2020,0
203,126,986,1,0,0,2069,2030,2035,2003,2025,2065,2042,2053,0
204,128,989,0,0,0,2030,2058,2049,2028,2056,1993,2032,2042,0
199,127,995,-2,-2,0,2022,2047,2045,2063,2080,2196,2020,2053,0
193,117,1007,-3,-6,-2,2062,2027,2033,2221,2025,2502,1980,2102,0
185,97,1022,-3,-12,-8,1999,2071,2066,2295,2059,2090,1993,2022,0
184,83,1017,2,-14,-16,2085,2033,2267,2147,1885,1833,2113,2208,0
193,88,981,8,-10,-25,2017,2052,3107,2064,1916,1839,2083,1934,0
212,103,925,1,1,-29,2022,2378,2016,1937,1820,2006,2161,1953,0
236,88,896,-3,15,-37,2195,2910,1452,2234,2099,1580,2316,2311,0
249,76,892,17,28,-47,2202,1920,1881,1876,2050,2036,3254,2371,0
206,130,903,22,35,-47,2102,1867,1938,2111,2071,2097,2868,2597,0
165,201,931,13,38,-42,2027,1903,1954,2073,2056,2199,2301,2447,0
129,239,968,12,40,-36,1953,1911,2051,2111,2114,2009,2142,2023,0
67,279,1016,5,31,-27,2056,1957,2053,2107,2009,1948,2127,2042,0
33,271,1006,1,23,-21,2002,2007,2037,2074,2084,2131,2118,2061,0
16,259,996,-2,19,-17,2010,2020,2031,2067,2080,2073,2068,2005,0
-2,240,1003,0,14,-13,2047,2043,2036,2018,2026,2116,2121,2035,0
-14,232,1001,1,10,-10,1989,2022,2032,2082,2092,2057,2091,1980,0
-20,234,997,0,8,-8,2057,2040,2023,2054,2022,2092,2065,2019,0
-27,241,995,0,6,-6,2004,2044,2031,2036,2073,2053,2050,1996,0
-32,243,992,-1,4,-4,2033,2047,2054,1982,2056,2079,2084,2020,0
-37,237,995,-1,3,-3,2049,2039,2281,2045,2030,2349,2035,2071,0
-44,224,999,3,2,-2,1975,2028,2573,2280,2254,2024,1807,1990,0
-54,206,1010,18,-1,-1,2078,2071,1378,2345,2395,1893,960,1935,0
-71,235,1037,36,-12,0,1984,2031,2084,2031,2548,2473,1451,2119,0
-95,305,1056,21,-29,7,2028,2020,931,1962,1763,2060,2391,2082,0
-92,343,1028,-12,-43,29,1958,2041,2089,2001,922,1838,2036,1884,0
-37,313,1002,12,-47,35,2005,1997,2539,2467,998,1418,1864,1760,0
20,328,987,20,-51,46,2036,2065,1929,2080,2138,1880,1937,1860,0
90,302,935,0,-49,43,2043,2007,2062,2068,2234,1997,1998,1947,0
116,257,890,-4,-38,37,2013,2014,2145,2109,2342,1888,2004,1911,0
122,239,883,5,-27,34,2097,2045,2109,2014,2206,2133,2040,2037,0
170,230,896,5,-18,28,2011,2026,2116,2072,2218,2021,1992,2008,0
203,238,911,0,-13,25,2073,2038,2093,2045,2140,2022,2013,2016,0
211,238,930,1,-12,23,2053,2047,2070,2053,2112,2057,2034,2056,0
227,231,937,-2,-11,18,2017,2025,2076,2100,2167,2008,2023,1998,0
232,217,935,-1,-9,14,2080,2062,2039,2037,2047,2069,2028,2064,0
239,214,935,2,-7,11,2014,2041,2062,2091,2131,2034,2026,2019,0
252,223,937,1,-6,8,2047,2045,2053,2073,2068,2042,2029,2024,0
263,230,939,0,-5,6,2050,2039,2044,2061,2061,2063,2030,2053,0
270,232,939,0,-4,4,2008,2032,2067,2103,2113,2025,2023,1995,0
273,229,939,0,-3,3,2066,2056,2043,2047,2007,2070,2031,2065,0
274,227,940,0,-2,2,1993,2036,2048,2086,2104,2026,2029,2011,0
276,229,942,0,-1,1,2057,2051,2037,2064,2040,2046,2032,2034,0
279,231,944,0,-1,1,2054,2048,2052,2053,2098,2066,2034,2049,0
280,231,945,0,-1,0,2016,2049,2061,2084,2184,2064,2034,2014,0
279,227,946,0,-1,0,2085,2055,2040,2038,1988,2149,2035,2068,0
277,222,948,-2,-1,0,2010,2041,2087,2200,2121,2429,2010,2019,0
272,219,952,-1,-4,-2,2003,2037,2068,2326,2133,2115,2029,2004,0
277,214,946,0,-7,-7,2082,2044,2244,2020,1918,2122,2496,2052,0
290,217,917,3,-4,-13,1998,2023,2248,1842,1935,1901,2439,1869,0
308,227,871,-7,11,-13,2016,2767,2649,1772,1866,1965,2469,2013,0
324,209,847,-28,27,-18,2118,2012,1262,2124,2031,1867,2712,2133,0
304,154,878,-22,38,-26,2087,1865,2010,2131,2111,2029,4093,2236,0
237,118,930,7,40,-29,2211,1933,2187,2097,1066,2200,4093,2646,0
187,144,953,23,40,-31,2006,1900,1938,2012,651,2256,3504,2464,0
151,214,958,24,40,-28,2021,2007,1997,2094,1881,2070,2281,2147,0
107,295,993,9,33,-22,2015,2044,2040,2058,2309,2044,2006,2081,0
77,299,988,3,26,-18,1997,2037,2071,2059,2406,2016,2013,2035,0
57,289,984,-2,22,-15,2053,2064,2058,2065,2223,2069,1969,2031,0
32,271,992,0,16,-12,1984,2013,2052,2075,2313,2035,1986,1965,0
17,264,989,1,11,-9,2053,2053,2042,2059,2157,2070,2021,2005,0
8,268,986,0,8,-7,2028,2043,2029,2078,2159,2079,2013,2009,0
2,270,984,0,6,-5,2011,2036,2044,2063,2167,2062,2001,2001,0
-3,268,983,0,4,-4,2071,2068,2050,2082,2047,2088,2024,2093,0
-7,266,983,0,2,-3,2001,2016,2051,2045,2182,2054,2026,2047,0
-10,266,982,0,1,-2,2061,2063,2051,2051,2050,2076,2029,2075,0
-13,266,981,0,0,-1,2026,2043,2051,2055,2106,2071,2037,2041,0
-15,265,980,0,0,0,1998,2023,2044,2060,2164,2055,2035,2010,0
-16,265,979,0,0,0,2065,2057,2043,2060,2029,2080,2038,2042,0
-18,265,978,0,0,0,2035,2043,2049,2053,2083,2076,2044,2040,0
-20,265,978,0,0,0,2027,2037,2046,2061,2117,2050,2054,2005,0
-21,264,978,0,0,0,2073,2071,2045,2055,2026,2091,2080,2064,0
-22,263,978,0,0,0,2003,2031,2046,2065,2137,2049,2061,2003,0
-23,263,978,0,0,0,2057,2056,2039,2060,2016,2073,2057,2039,0
-24,263,978,0,0,0,2029,2042,2055,2055,2059,2069,2071,2052,0
-24,263,978,0,0,0,2032,2039,2048,2060,2105,2055,2088,2039,0
-24,263,978,0,0,0,2075,2067,2058,2006,1898,2154,2166,2063,0
-24,264,979,0,0,0,2010,2028,2156,2158,1955,2168,2196,2075,0
-28,262,982,6,0,0,2047,2096,2690,2052,2059,2145,2241,2080,0
-35,246,990,14,-3,0,1993,2006,1780,2038,1971,1854,2076,1989,0
-46,230,1029,39,-12,0,2047,2302,1506,2398,1799,2025,796,2032,0
-57,261,1027,44,-23,0,2056,2023,1961,1899,2313,2193,5,2429,0
-41,351,983,23,-28,4,2075,2188,2354,1525,1968,1749,2250,1879,0
-22,459,969,-18,-35,21,1966,1993,1877,1967,1932,1687,1687,1904,0
-13,429,966,-16,-46,39,2020,1980,2066,2162,2173,1888,1817,1873,0
46,352,932,-4,-43,38,2044,2004,2095,2098,2105,1937,1883,1939,0
86,310,899,-8,-38,35,2058,2032,2073,2075,2049,1999,1909,1983,0
120,277,891,-7,-31,30,2038,2036,2064,2111,2107,2046,1997,1978,0
158,256,895,-2,-25,25,2032,2034,2062,2095,2103,2041,1984,1997,0
188,253,897,-3,-20,21,2069,2055,2045,2046,2015,2079,2004,2047,0
210,249,904,-1,-16,16,2003,2023,2053,2085,2163,2030,2012,1997,0
225,251,915,0,-13,13,2088,2062,2050,2045,2009,2060,2010,2051,0
237,250,919,-1,-11,10,2007,2022,2058,2059,2070,2021,2030,1998,0
247,245,920,1,-8,7,2036,2043,2054,2057,2076,2040,2021,2025,0
256,250,924,1,-6,5,2054,2059,2051,2032,2014,2057,2016,2058,0
263,257,928,0,-5,4,2004,2024,2057,2079,2149,2015,2023,2008,0
268,257,931,0,-4,3,2088,2063,2043,2045,1991,2072,2032,2071,0
270,255,933,0,-3,2,2021,2034,2050,2067,2105,2028,2025,2028,0
271,254,935,0,-2,1,2027,2044,2044,2060,2053,2041,2026,2031,0
274,256,937,0,-2,0,2066,2055,2038,2032,2021,2073,2028,2058,0
276,255,937,0,-1,0,1994,2022,2053,2081,2102,2016,2017,2001,0
276,255,938,0,-1,0,2086,2064,2039,2037,1987,2075,2037,2069,0
277,256,938,0,0,0,2005,2028,2052,2071,2097,2030,2027,2019,0
278,257,939,0,0,0,2045,2049,2048,2059,2044,2044,2029,2026,0
277,257,940,0,0,0,2052,2054,2043,2038,2030,2064,2030,2058,0
278,256,940,0,0,0,2008,2033,2058,2088,2124,2019,2030,1997,0
278,256,941,0,0,0,2086,2065,2040,2033,1993,2074,2036,2067,0
278,257,941,0,0,0,2002,2026,2053,2074,2113,2040,2028,2011,0
278,257,941,0,0,0,2003,2026,2050,2086,2114,2025,2026,2003,0
277,258,941,0,0,0,2080,2068,2043,2034,1992,2066,2031,2066,0
277,257,942,0,0,0,2020,2031,2050,2075,2088,2036,2033,2026,0
276,257,942,0,0,0,2044,2050,2054,2070,2032,2042,2032,2012,0
276,256,942,0,0,0,2037,2048,2042,2042,2038,2073,2036,2070,0
275,257,942,0,0,0,2019,2032,2057,2083,2126,2023,2032,2008,0
276,258,942,0,0,0,2083,2066,2041,2046,1981,2072,2046,2057,0
277,257,942,0,0,0,2017,2036,2052,2076,2088,2017,2029,2019,0
276,256,942,0,0,0,2053,2051,2046,2064,2040,2048,2031,2038,0
277,256,942,0,0,0,2046,2053,2041,2036,2035,2067,2037,2065,0
278,255,942,0,0,0,2018,2034,2059,2101,2113,2016,2025,2006,0
277,255,941,0,0,0,2075,2060,2039,2033,1982,2092,2039,2065,0
276,257,941,0,0,0,2025,2035,2056,2077,2112,2030,2032,2009,0
276,260,942,0,0,0,2057,2060,2045,2057,2033,2053,2038,2031,0
277,259,942,0,0,0,2052,2049,2049,2052,2037,2058,2031,2049,0
277,256,942,0,0,0,2006,2036,2054,2085,2076,2023,2023,2004,0
275,256,942,0,0,0,2098,2066,2037,2033,1987,2082,2036,2057,0
276,256,942,0,0,0,2008,2035,2055,2081,2122,2029,2028,2006,0
276,257,941,0,0,0,2069,2051,2046,2053,2022,2060,2036,2053,0
276,256,941,0,0,0,2039,2044,2046,2053,2036,2059,2035,2062,0
275,256,941,0,0,0,2020,2039,2050,2080,2107,2027,2025,2016,0
275,256,942,0,0,0,2075,2067,2038,2028,1976,2086,2037,2051,0
275,257,942,0,0,0,2054,2054,2039,2050,2047,2064,2034,2035,0
275,257,942,0,0,0,2008,2031,2046,2082,2107,2029,2026,2002,0
275,257,942,0,0,0,2078,2061,2042,2028,1984,2082,2036,2086,0
275,257,943,0,0,0,2004,2038,2052,2079,2113,2032,2028,2017,0
275,257,943,0,0,0,2080,2062,2045,2060,2017,2055,2035,2044,0
274,257,943,0,0,0,2059,2051,2050,2038,2029,2079,2033,2057,0
275,258,943,0,0,0,2017,2027,2051,2091,2107,2027,2033,2002,0
275,258,943,0,0,0,2080,2064,2047,2036,1984,2080,2042,2087,0
275,258,942,0,0,0,2006,2036,2056,2074,2119,2039,2027,2009,0
275,259,942,0,0,0,2068,2062,2041,2059,2022,2050,2038,2035,0
276,258,942,0,0,0,2038,2048,2046,2052,2055,2058,2041,2054,0
276,257,942,0,0,0,2022,2039,2053,2083,2103,2039,2023,2030,0
276,257,942,0,0,0,2079,2059,2036,2022,1974,2083,2038,2063,0
276,258,942,0,0,0,2000,2030,2056,2080,2106,2024,2022,1999,0
276,260,942,0,0,0,2063,2062,2044,2051,2014,2073,2039,2043,0
277,259,942,0,0,0,2042,2046,2050,2052,2063,2058,2036,2043,0
277,257,942,0,0,0,2029,2043,2052,2081,2074,2030,2027,2003,0
276,256,942,0,0,0,2074,2058,2043,2026,1992,2084,2038,2064,0
275,257,943,0,0,0,1996,2032,2055,2090,2111,2023,2021,1996,0
276,257,943,0,0,0,2069,2054,2040,2039,2014,2070,2037,2058,0
277,256,942,0,0,0,2027,2036,2044,2048,2072,2049,2029,2047,0
277,258,941,0,0,0,1999,2033,2050,2083,2103,2028,2029,1996,0
278,260,940,0,0,0,2057,2056,2044,2047,2010,2055,2030,2037,0
280,261,940,0,0,0,2029,2041,2043,2050,2047,2059,2036,2033,0
279,259,941,0,0,0,2008,2036,2049,2095,2083,2015,2029,1995,0
279,255,941,0,0,0,2067,2057,2039,2033,1986,2083,2036,2077,0
277,253,942,0,0,0,1994,2031,2052,2088,2121,2025,2028,2019,0
278,253,942,0,0,0,2072,2058,2042,2041,2009,2066,2030,2042,0
277,256,942,0,0,0,2035,2043,2052,2062,2058,2058,2038,2050,0
278,256,942,0,0,0,2040,2046,2050,2084,2088,2032,2033,2012,0
278,255,941,0,0,0,2074,2062,2041,2039,1991,2084,2037,2083,0
279,253,940,0,0,0,2000,2034,2054,2092,2121,2027,2025,1998,0
278,255,941,0,0,0,2079,2063,2045,2054,2004,2058,2044,2054,0
279,256,941,0,0,0,2025,2042,2050,2058,2073,2056,2033,2045,0
278,256,941,0,0,0,2030,2045,2050,2075,2078,2038,2036,2019,0
279,254,941,0,0,0,2071,2058,2042,2024,1989,2085,2036,2070,0
279,254,941,0,0,0,2002,2031,2057,2090,2120,2022,2025,2007,0
279,256,942,0,0,0,2069,2057,2041,2048,1984,2075,2038,2051,0
279,256,942,0,0,0,2021,2040,2050,2065,2069,2049,2028,2024,0
280,253,941,0,0,0,2041,2045,2047,2078,2065,2046,2032,2024,0
281,252,941,0,0,0,2066,2059,2041,2041,2006,2079,2033,2065,0
281,253,941,0,0,0,2000,2030,2057,2085,2105,2029,2029,1999,0
282,253,941,0,0,0,2068,2059,2036,2042,1981,2079,2034,2066,0
282,253,941,0,0,0,2064,2058,2039,2031,1994,2090,2039,2070,0
282,252,941,0,0,0,2015,2033,2056,2094,2121,2024,2021,2002,0
282,252,941,0,0,0,2074,2057,2042,2030,1992,2078,2037,2059,0
282,252,941,0,0,0,2018,2042,2049,2064,2066,2043,2026,2033,0
282,253,941,0,0,0,2041,2048,2048,2076,2054,2046,2033,2017,0
282,252,942,0,0,0,2063,2052,2037,2031,2012,2070,2037,2066,0
281,253,942,0,0,0,2008,2032,2056,2101,2103,2024,2025,1996,0
281,253,943,0,0,0,2079,2058,2036,2038,1998,2076,2035,2058,0
281,254,943,0,0,0,2022,2040,2053,2066,2095,2050,2032,2018,0
282,253,942,0,0,0,2049,2047,2054,2068,2056,2054,2037,2017,0
282,252,941,0,0,0,2061,2059,2041,2035,2007,2085,2039,2073,0
283,252,941,0,0,0,2000,2033,2050,2082,2115,2026,2027,1999,0
282,252,941,0,0,0,2077,2061,2043,2039,1983,2085,2042,2069,0
282,251,942,0,0,0,2016,2037,2052,2078,2083,2038,2032,2026,0
281,250,942,0,0,0,2041,2049,2049,2071,2047,2046,2034,2009,0
281,252,942,0,0,0,2057,2054,2046,2040,2017,2082,2037,2062,0
282,253,941,0,0,0,2022,2038,2054,2097,2112,2031,2027,2013,0
283,252,941,0,0,0,2085,2063,2034,2037,1996,2086,2035,2065,0
282,251,941,0,0,0,2007,2037,2052,2080,2098,2042,2035,2027,0
282,251,942,0,0,0,2045,2048,2045,2068,2043,2053,2037,2037,0
281,252,943,0,0,0,2049,2051,2050,2037,2021,2074,2035,2060,0
282,252,943,0,0,0,2026,2042,2048,2073,2070,2034,2042,2010,0
282,250,942,0,0,0,2045,2052,2053,2073,2060,2051,2031,2021,0
282,250,941,0,0,0,2066,2053,2042,2035,2016,2072,2041,2065,0
283,251,942,0,0,0,2020,2037,2056,2096,2125,2027,2032,2006,0
284,250,942,0,0,0,2070,2055,2041,2031,1972,2085,2035,2059,0
283,249,942,0,0,0,2007,2034,2048,2071,2082,2040,2030,2026,0
283,250,943,0,0,0,2044,2050,2046,2062,2047,2057,2028,2031,0
283,251,943,0,0,0,2052,2051,2039,2030,2019,2077,2041,2058,0
284,249,942,0,0,0,2003,2031,2055,2086,2127,2030,2030,2001,0
284,245,941,0,0,-1,2079,2059,2035,2025,1983,2099,2040,2071,0
283,241,940,0,0,-2,2018,2034,2052,2047,2065,2081,2032,2037,0
283,239,941,0,-1,-3,2056,2052,2041,2068,2015,2207,2041,2051,0
283,233,944,-1,-4,-6,2054,2050,2029,2126,2030,2338,2045,2062,0
284,224,937,0,-5,-12,2019,2037,2300,2504,2111,1980,2156,1977,0
285,226,918,6,-2,-18,2034,2052,2303,2018,1878,1919,3404,2037,0
296,241,889,9,7,-20,1988,2016,2608,2020,1952,2038,3498,1987,0
312,247,867,8,21,-21,2117,2226,1826,1599,1997,2072,2822,2056,0
293,253,870,0,33,-25,2168,1965,1837,2174,2012,2114,2912,2247,0
246,259,900,-12,36,-26,2085,1971,1811,2109,2072,1926,3964,2479,0
199,257,939,-5,36,-25,2119,2036,1937,2080,2059,2242,3090,2665,0
158,274,963,0,34,-22,2018,2004,1977,2052,2135,2147,2187,2353,0
128,305,974,-2,32,-18,1987,2011,2059,2051,2180,2042,2003,2114,0
99,329,984,-12,28,-15,2046,2054,2057,2013,2009,2103,1938,2049,0
68,307,994,-13,22,-12,1987,2033,2044,2037,2125,2069,2031,2001,0
48,274,994,-10,18,-10,2042,2055,2045,2065,2037,2085,2134,2005,0
29,255,995,-6,14,-8,2022,2046,2045,2046,2025,2095,2062,2015,0
15,250,994,-3,10,-6,2002,2031,2038,2045,2090,2042,2050,1966,0
6,250,991,-2,7,-4,2066,2064,2055,2046,1981,2106,2048,2048,0
0,248,990,-1,5,-3,1997,2029,2041,2045,2106,2050,2034,2001,0
-4,245,989,0,3,-2,2057,2058,2042,2053,2017,2084,2022,2025,0
-8,244,988,0,2,-1,2032,2046,1999,2047,2039,2091,2023,2040,0
-11,245,987,0,1,0,2012,2042,2047,2051,2097,2056,2018,1995,0
-12,244,986,0,0,0,2076,2061,2049,2064,1986,2114,2039,2066,0
-13,242,986,0,0,0,1999,2031,2054,2054,2114,2049,2060,1994,0
-14,241,986,0,0,0,2063,2058,2050,2048,2005,2084,2061,2053,0
-15,241,986,0,0,0,2034,2045,2048,2040,2053,2081,2067,2044,0
-16,240,986,0,0,0,2023,2044,2050,2053,2083,2050,2085,2016,0
-17,239,986,0,0,0,2071,2063,2043,2044,1996,2107,2095,2065,0
-18,239,985,0,0,0,2000,2032,2043,2050,2114,2050,2060,2005,0
-18,239,985,0,0,0,2067,2058,2041,2048,2006,2090,2062,2061,0
-19,239,985,0,0,0,2030,2047,2048,2048,2059,2069,2050,2037,0
-20,238,985,0,0,0,2028,2039,2046,2052,2079,2049,2048,2031,0
-20,238,985,0,0,0,2063,2061,2043,2052,2021,2081,2048,2064,0
-20,239,985,0,0,0,2036,2047,2046,2046,2050,2086,2050,2052,0
-20,239,985,0,0,0,2018,2043,2051,2050,2086,2046,2046,2022,0
-20,239,985,0,0,0,2072,2060,2046,2032,1978,2116,2053,2082,0
-21,240,985,0,0,0,2001,2033,2052,2036,2083,2057,2037,2013,0
-22,238,987,0,0,0,2061,2055,2043,2024,1991,2073,2055,2057,0
-22,234,989,1,0,0,2021,2040,2057,2057,2079,2109,2036,2024,0
-26,229,991,3,-1,0,2012,2038,2053,2068,2109,2114,2016,1985,0
-31,234,994,7,-4,0,2072,2060,2069,2309,2007,2208,1997,2054,0
-33,247,998,10,-8,2,1969,2022,2055,1782,2235,1996,1912,1949,0
-25,257,1002,15,-12,3,2065,2055,2113,1929,2240,2038,1950,2028,0
-15,265,1000,18,-15,3,2006,2044,2033,2085,2504,1961,1748,1996,0
-4,270,996,17,-18,3,2025,2048,2083,2077,2404,2056,1733,1992,0
9,278,983,15,-20,1,2088,2137,2277,2079,1953,2086,1841,2060,0
26,292,965,8,-20,0,2000,2044,1970,2133,1962,1999,1921,1958,0
44,293,951,7,-18,-2,2076,2044,1985,2022,1668,2156,1995,2068,0
55,302,944,9,-16,-3,2014,2022,2028,2079,1948,2081,1989,2025,0
67,321,931,8,-12,-1,2048,2039,2303,2021,1999,2044,2003,2025,0
84,331,922,4,-8,-1,2081,2054,2162,2019,1613,2115,2049,2097,0
93,327,928,5,-4,-2,1990,2027,1930,2116,1188,2002,2047,2005,0
87,334,936,7,-3,-1,2031,2041,1948,2044,886,2046,2056,2024,0
86,345,939,6,-3,-1,2073,2053,1992,2026,1862,2112,2072,2083,0
85,352,941,5,-3,0,1985,2023,2016,2065,2411,2043,2059,1998,0
86,358,939,4,-3,0,2092,2065,2094,2059,2250,2128,2070,2082,0
88,363,936,3,-2,0,2010,2034,2055,2056,2331,2072,2058,2039,0
89,367,934,2,-1,0,2039,2045,2056,2054,2240,2069,2057,2030,0
89,370,933,1,0,0,2073,2057,2052,2023,2148,2119,2063,2090,0
88,371,934,0,0,0,1992,2025,2016,2064,2239,2038,2044,1994,0
87,371,935,0,0,0,2090,2066,2088,2044,2050,2117,2069,2086,0
87,369,935,0,0,0,2004,2030,1978,2050,2181,2057,2059,2029,0
87,367,935,0,0,0,2047,2044,1975,2034,2099,2072,2064,2024,0
86,369,935,0,0,0,2063,2056,2016,2016,2036,2120,2070,2079,0
85,372,935,0,0,0,1992,2024,2041,2083,2173,2039,2055,2002,0
84,374,936,0,0,0,2092,2067,2098,2041,1992,2134,2069,2094,0
84,375,936,0,0,0,2004,2036,2046,2117,2143,2047,2055,2030,0
84,375,935,0,0,0,2051,2051,2057,2024,2067,2059,2058,2033,0
83,373,936,0,0,0,2058,2060,2079,2022,2030,2101,2066,2074,0
82,370,938,1,0,0,2000,2028,2024,2080,2151,2034,2071,1999,0
81,371,938,1,0,0,2094,2068,2076,2036,1957,2130,2079,2080,0
82,374,936,0,0,0,1998,2032,2031,2069,2134,2061,2057,2017,0
83,376,935,0,0,0,2052,2051,2025,2091,2029,2084,2058,2042,0
84,378,934,-1,0,0,2096,2065,1922,2068,1971,2123,2069,2102,0
84,379,933,-2,0,0,2005,2037,2008,2045,2132,2046,2049,2029,0
84,377,935,-3,0,0,2049,2045,2013,2050,2048,2066,2052,2050,0
82,372,938,-3,0,0,2059,2051,2074,2021,2012,2111,2066,2072,0
81,366,939,-2,0,0,1995,2030,2049,2075,2142,2032,2051,2005,0
80,362,941,0,0,0,2089,2070,2084,2027,1957,2114,2070,2089,0
80,361,941,0,0,0,1996,2032,2045,2062,2128,2053,2055,2015,0
80,363,940,0,0,0,2054,2052,2061,2054,2031,2075,2060,2049,0
81,365,939,0,0,0,2049,2050,2061,2034,2034,2099,2064,2067,0
81,366,939,0,0,0,1998,2026,2033,2080,2132,2033,2046,1986,0
81,366,939,0,0,0,2088,2064,2065,2028,1961,2130,2068,2097,0
81,366,939,0,0,0,1997,2027,2030,2068,2133,2044,2050,2005,0
81,365,939,0,0,0,2062,2058,2047,2057,2013,2076,2060,2051,0
81,365,939,0,0,0,2045,2051,2055,2039,2031,2103,2069,2065,0
81,365,939,0,0,0,2005,2035,2026,2082,2124,2038,2054,1997,0
81,365,939,0,0,0,2086,2067,2066,2027,1955,2126,2069,2092,0
81,365,939,0,0,0,1992,2032,2034,2063,2137,2039,2047,2003,0
81,365,940,0,0,0,2069,2057,2052,2051,2013,2083,2064,2047,0
81,364,940,0,0,0,2041,2049,2049,2042,2032,2093,2063,2059,0
81,364,940,0,0,0,2010,2028,2033,2073,2114,2036,2053,2005,0
81,364,940,0,0,0,2092,2068,2068,2024,1965,2124,2072,2096,0
81,365,940,0,0,0,2051,2053,2063,2030,2040,2109,2062,2063,0
81,364,939,0,0,0,2008,2036,2029,2071,2123,2024,2052,1996,0
81,364,938,0,0,0,2086,2065,2062,2019,1958,2127,2069,2090,0
81,364,939,0,0,0,1990,2028,2034,2076,2125,2037,2053,2015,0
81,364,939,0,0,0,2069,2056,2032,2051,2017,2079,2059,2062,0
81,363,939,0,0,0,2042,2053,2027,2035,2039,2088,2064,2056,0
81,363,940,0,0,0,2005,2028,2011,2077,2102,2018,2052,1999,0
81,363,939,0,0,0,2096,2061,2059,2028,1965,2121,2071,2099,0
82,363,939,0,0,0,1991,2032,2028,2064,2140,2038,2053,1995,0
82,363,939,0,0,0,2065,2057,2058,2050,2001,2085,2063,2060,0
82,363,939,0,0,0,2035,2048,2054,2033,2046,2084,2061,2043,0
82,363,939,0,0,0,2009,2035,2030,2075,2107,2037,2050,2001,0
82,363,939,0,0,0,2080,2064,2054,2022,1962,2123,2072,2084,0
82,363,939,0,0,0,1987,2030,2015,2072,2139,2026,2047,2000,0
82,363,939,0,0,0,2071,2057,2050,2043,1982,2088,2061,2061,0
82,363,939,0,0,0,2027,2044,2049,2047,2059,2075,2065,2042,0
83,363,939,0,0,0,2024,2037,2033,2072,2099,2034,2047,2010,0
83,363,939,0,0,0,2082,2068,2062,2023,1976,2106,2067,2099,0
83,363,939,0,0,0,1990,2028,2034,2078,2140,2029,2051,2002,0
83,362,939,0,0,0,2084,2059,2057,2040,1990,2093,2064,2057,0
83,362,939,0,0,0,2025,2042,2044,2046,2067,2067,2068,2047,0
83,363,939,0,0,0,2025,2043,2032,2079,2094,2042,2053,2007,0
83,363,940,0,0,0,2075,2066,2051,2047,1997,2086,2066,2059,0
83,362,940,0,0,0,2037,2043,2053,2045,2067,2068,2061,2049,0
83,361,940,0,0,0,2020,2041,2034,2074,2101,2031,2053,2008,0
83,361,940,0,0,0,2085,2062,2063,2027,1964,2114,2068,2093,0
83,361,940,0,0,0,1986,2031,2034,2075,2143,2030,2048,1999,0
83,361,940,0,0,0,2075,2059,2051,2040,1988,2090,2060,2062,0
83,361,940,0,0,0,2030,2047,2050,2042,2076,2064,2063,2041,0
83,362,941,0,0,0,2022,2041,2035,2078,2094,2036,2055,2028,0
83,361,941,0,0,0,2081,2061,2056,2022,1968,2108,2068,2092,0
83,360,941,0,0,0,1987,2029,2031,2078,2146,2017,2051,1996,0
83,359,941,0,0,0,2082,2065,2051,2036,1980,2078,2070,2069,0
84,359,941,0,0,0,2021,2043,2046,2051,2083,2053,2059,2044,0
84,359,940,0,0,0,2024,2045,2038,2068,2076,2030,2055,2022,0
84,360,940,0,0,0,2069,2059,2057,2019,1973,2101,2067,2077,0
84,360,940,0,0,0,1988,2026,2032,2080,2143,2011,2051,2000,0
84,360,940,0,0,0,2080,2062,2054,2038,1967,2089,2059,2069,0
84,360,940,0,0,0,2011,2038,2046,2050,2088,2047,2055,2030,0
84,360,941,0,0,0,2033,2043,2041,2069,2065,2037,2056,2015,0
84,360,941,0,0,0,2080,2060,2060,2028,1976,2102,2071,2084,0
84,359,940,0,0,0,1987,2033,2038,2084,2153,2018,2051,2003,0
84,359,940,0,0,0,2087,2064,2060,2036,1969,2108,2064,2081,0
84,359,941,0,0,0,2077,2063,2056,2020,1988,2112,2070,2082,0
84,358,942,0,0,0,1991,2029,2035,2081,2146,2008,2053,1994,0
84,357,943,0,0,0,2086,2060,2055,2040,1975,2095,2068,2079,0
84,357,942,0,0,0,2022,2040,2046,2045,2089,2057,2061,2037,0
84,357,943,0,0,0,2030,2044,2036,2072,2064,2039,2049,2018,0
84,356,943,0,0,0,2066,2058,2057,2018,1981,2106,2065,2090,0
84,356,943,0,0,0,1990,2031,2032,2088,2136,1989,2051,2002,0
84,356,943,0,0,0,2083,2065,2058,2026,1977,2060,2065,2081,0
84,356,943,0,0,0,2016,2037,2042,2061,2108,2032,2051,2024,0
84,354,944,0,0,0,2037,2046,2039,2069,2056,2034,2051,2032,0
84,353,944,0,0,0,2067,2058,2062,2023,1994,2097,2068,2092,0
84,353,944,0,0,0,1991,2032,2032,2078,2144,2005,2052,2006,0
84,354,944,0,0,0,2089,2071,2062,2037,1958,2086,2070,2084,0
84,354,944,0,0,0,2015,2041,2046,2062,2095,2033,2056,2015,0
84,353,944,0,0,0,2045,2047,2042,2062,2043,2044,2053,2027,0
84,352,944,0,0,0,2062,2055,2052,2024,2004,2096,2071,2074,0
84,352,945,0,0,0,1994,2026,2037,2082,2135,1999,2048,2003,0
84,352,945,0,0,0,2085,2061,2051,2027,1956,2092,2063,2095,0
84,352,945,0,0,0,1998,2032,2046,2063,2109,2019,2056,2023,0
84,352,945,0,0,0,2052,2047,2046,2064,2036,2040,2051,2029,0
84,351,945,0,0,0,2058,2054,2043,2025,2002,2077,2063,2080,0
84,351,945,0,0,0,1999,2035,2034,2086,2139,2010,2047,2006,0
84,350,945,0,0,0,2038,2044,2041,2038,2016,2005,2054,2023,0
84,348,945,0,0,0,2061,2055,2054,1997,1948,2051,2069,2079,0
83,346,947,0,0,0,1988,2030,2038,2052,2084,2098,2055,1993,0
81,349,949,1,-1,0,2085,2063,2060,2080,1951,2393,2081,2082,0
79,351,953,6,-3,0,2006,2035,2149,2084,2111,2133,2079,2016,0
82,358,944,11,-4,0,2060,2065,1978,2062,2029,2026,2115,2028,0
95,366,922,12,-2,0,2092,2039,2112,1944,1893,1907,2221,2110,0
108,367,897,4,3,0,2043,2040,2035,2030,2094,1866,2543,2080,0
114,361,887,-10,10,-4,2131,2086,1955,2141,1790,1848,2507,2248,0
100,353,902,-13,15,-6,2041,2056,1904,2203,1847,1429,2208,2195,0
83,348,924,-9,20,-7,2021,2051,2003,1959,1881,2045,2121,2126,0
71,355,936,-11,22,-8,2027,2053,2098,2075,2062,2187,2133,2035,0
29,374,970,-15,16,-5,2005,2040,2058,2056,2158,2084,2036,1992,0
6,352,968,-14,11,-4,2066,2053,2022,2056,2049,2111,2048,2077,0
0,329,964,-14,9,-4,2001,2035,2052,2059,2161,2043,2024,2005,0
-10,313,972,-10,7,-3,2042,2047,2043,2058,2078,2036,2033,2022,0
-17,306,971,-8,5,-2,2043,2046,2030,2048,2063,2059,2053,2053,0
-21,302,971,-6,4,-1,2008,2041,2051,2059,2140,2002,2027,1996,0
-25,298,971,-4,3,0,2066,2053,2047,2044,2012,2070,2045,2063,0
-29,294,971,-3,2,0,2005,2032,2052,2058,2137,2013,2033,2012,0
-32,289,971,-2,1,0,2008,2034,2046,2060,2124,1970,2035,1989,0
-34,287,971,-1,0,0,2070,2055,2045,2052,1979,2065,2053,2068,0
-35,286,971,0,0,0,2007,2035,2054,2059,2116,2027,2037,2013,0
-36,285,971,0,0,0,2045,2046,2047,2053,2042,2044,2047,2038,0
-37,284,971,0,0,0,2051,2046,2044,2053,2044,2064,2070,2048,0
-38,284,971,0,0,0,2014,2039,2048,2059,2129,2013,2045,2013,0
-39,284,971,0,0,0,2073,2057,2042,2049,1998,2070,2063,2080,0
-39,283,971,0,0,0,2012,2039,2051,2056,2112,2013,2040,2015,0
-40,282,971,0,0,0,2047,2049,2039,2052,2033,2026,2050,2050,0
-40,282,971,0,0,0,2049,2047,2044,2046,2040,2057,2056,2061,0
-40,282,971,0,0,0,2017,2042,2048,2059,2120,2008,2043,2017,0
-40,283,971,0,0,0,2072,2058,2042,2049,1986,2057,2054,2070,0
-40,284,971,0,0,0,2007,2043,2052,2067,2106,1998,2040,2016,0
-40,279,971,0,0,0,2058,2052,2042,2053,2035,2024,2051,2053,0
-41,278,971,0,0,0,2045,2052,2049,2050,2053,2040,2053,2046,0
-41,280,971,0,0,0,2016,2044,2049,2061,2108,1994,2039,2021,0
-40,281,971,0,0,0,2071,2061,2043,2046,1990,2055,2057,2072,0
-40,279,971,0,0,0,2005,2037,2047,2052,2113,2002,2044,2023,0
-41,277,971,0,0,0,2056,2053,2046,2059,2015,2030,2052,2060,0
-41,276,971,0,0,0,2034,2046,2044,2053,2050,2044,2072,2055,0
-41,277,971,0,0,0,2019,2042,2050,2061,2091,2007,2047,2014,0
-41,277,971,0,0,0,2054,2051,2043,2053,2027,2038,2056,2047,0
-41,277,971,0,0,0,2040,2045,2043,2047,2033,2047,2053,2052,0
-41,277,971,0,0,0,2013,2036,2048,2059,2093,2008,2049,2010,0
-41,278,971,0,0,0,2070,2053,2042,2052,1986,2054,2060,2078,0
-41,279,971,0,0,0,2010,2036,2052,2052,2110,2009,2040,2015,0
-41,279,971,0,0,0,2055,2049,2041,2048,2023,2046,2046,2045,0
-41,279,971,0,0,0,2037,2046,2044,2052,2039,2037,2052,2059,0
-41,278,971,0,0,0,2023,2041,2051,2063,2097,2015,2050,2023,0
-41,277,971,0,0,0,2068,2057,2041,2049,1984,2064,2061,2076,0
-42,278,971,0,0,0,2009,2041,2058,2024,2071,2039,2032,2020,0
-42,280,971,0,0,0,2059,2058,2047,1977,1995,2131,1997,2076,0
-44,282,974,3,0,0,2035,2047,2093,2061,2059,2151,1898,2065,0
-46,272,977,6,0,0,2018,2049,2124,2061,2100,2087,1911,2036,0
-48,262,981,15,-3,0,2087,2064,2440,1983,0,2154,2026,2103,0
-53,272,987,25,-8,0,2001,2028,2184,2219,232,2194,2262,2018,0
-56,298,985,29,-14,2,2103,2075,2328,1931,1856,2093,2239,2057,0
-51,323,979,27,-19,4,2001,2027,1482,1997,2342,2017,2114,2011,0
-38,329,971,28,-22,3,2007,2457,1163,1992,2522,2014,1966,1971,0
-14,357,953,25,-23,0,2064,2144,2137,2029,2512,1938,1971,2053,0
8,416,936,13,-21,1,1955,1912,2081,2058,2496,1582,1842,1878,0
10,457,926,-4,-24,7,2069,1956,2152,2061,2210,1805,2003,2014,0
18,437,913,-8,-25,13,2062,1996,2117,1957,2190,2026,2016,2032,0
55,394,893,-5,-20,10,1983,1976,2081,2059,2297,2040,2041,1938,0
80,377,891,-1,-15,7,2079,2033,2056,2023,2098,2046,2014,2045,0
89,386,901,-1,-12,6,2029,2026,2056,2024,2203,1904,2000,2008,0
99,394,906,-4,-9,6,2026,2023,2071,2073,2184,1926,2039,1995,0
107,381,909,-4,-7,4,2086,2060,2056,2015,2025,2047,2054,2089,0
110,366,916,0,-5,3,1991,2013,2052,2085,2226,2018,2045,1985,0
111,363,922,2,-4,2,2082,2055,2049,2037,2003,2062,2061,2081,0
116,368,924,3,-3,1,2028,2038,2056,2041,2148,2034,2060,2028,0
121,374,923,2,-2,0,2047,2042,2050,2059,2138,2048,2056,2022,0
125,375,922,1,-1,0,2069,2053,2050,2008,2007,2084,2054,2067,0
126,377,922,0,-1,0,1988,2026,2056,2067,2201,2005,2028,1991,0
128,377,923,0,-1,0,2097,2066,2045,2028,1985,2076,2063,2079,0
128,371,925,0,-1,0,2012,2037,2055,2039,2142,2027,2048,2038,0
126,373,928,0,-1,0,2049,2047,2043,2059,2086,2032,2051,2031,0
127,376,929,0,-1,0,2068,2057,2035,2006,2021,2071,2061,2074,0
128,377,928,0,-1,0,1991,2030,2051,2070,2176,2003,2043,1986,0
129,375,928,0,-1,0,2089,2070,2040,2013,1965,2074,2059,2074,0
129,374,928,0,-1,0,2000,2037,2052,2046,2131,2023,2049,2015,0
129,375,928,0,-1,0,2051,2045,2043,2052,2076,2029,2043,2023,0
129,375,929,0,-1,0,2088,2060,2037,2021,1989,2069,2052,2071,0
129,374,930,0,-1,0,2012,2031,2045,2053,2106,2030,2049,2034,0
129,371,930,0,-1,0,2040,2046,2046,2052,2064,2028,2049,2026,0
129,371,930,0,-1,0,2074,2054,2041,2006,2004,2076,2063,2072,0
129,373,930,0,-1,0,1991,2032,2051,2080,2154,2003,2024,1989,0
128,374,930,0,-1,0,2094,2063,2042,2020,1954,2074,2062,2093,0
128,371,931,0,-1,0,2006,2034,2047,2040,2134,2032,2047,2019,0
126,371,931,0,-1,0,2041,2047,2043,2052,2061,2030,2047,2024,0
126,372,931,0,-1,0,2057,2057,2042,2019,2000,2068,2064,2075,0
127,372,930,0,-1,0,2003,2036,2057,2075,2149,2005,2041,1988,0
127,373,929,0,-1,0,2090,2067,2060,2013,1983,2082,2069,2087,0
128,375,929,0,-1,0,2000,2036,2057,2062,2125,2028,2051,2014,0
127,377,929,0,-1,0,2057,2049,2046,2043,2053,2038,2053,2044,0
127,376,930,0,-1,0,2065,2052,2042,2022,2011,2059,2056,2075,0
127,376,930,0,-1,0,1997,2035,2055,2074,2156,2002,2042,1985,0
127,375,930,0,-1,0,2091,2062,2039,2009,1962,2085,2066,2089,0
127,375,929,0,-1,0,1998,2037,2049,2055,2131,2023,2046,2023,0
128,377,929,0,-1,0,2053,2053,2045,2051,2044,2045,2054,2035,0
128,378,930,0,-1,0,2052,2052,2040,2014,2036,2068,2065,2075,0
127,377,930,0,-1,0,2004,2039,2050,2075,2136,2011,2041,1994,0
127,376,930,0,-1,0,2078,2058,2041,2000,1958,2081,2057,2092,0
128,376,929,0,-1,0,2064,2051,2045,2022,2010,2065,2057,2073,0
128,376,929,0,-1,0,2001,2038,2049,2074,2142,2004,2043,2004,0
128,377,929,0,-1,0,2087,2061,2035,2004,1962,2081,2060,2081,0
128,376,929,0,-1,0,1999,2036,2049,2048,2129,2018,2041,2011,0
128,375,929,0,-1,0,2048,2043,2037,2051,2035,2047,2049,2043,0
128,374,929,0,-1,0,2045,2047,2044,2014,2010,2063,2055,2074,0
128,374,929,0,-1,0,2005,2033,2052,2080,2134,2008,2041,1992,0
129,375,929,0,-1,0,2097,2059,2039,2009,1971,2087,2063,2096,0
128,375,930,0,-1,0,2003,2037,2058,2062,2133,2015,2044,2011,0
129,374,930,0,-1,0,2052,2051,2044,2038,2021,2057,2048,2053,0
129,373,930,0,-1,0,2050,2053,2041,2017,2019,2071,2061,2066,0
129,373,930,0,-1,0,2002,2036,2049,2071,2133,2015,2044,1990,0
-66,464,893,0,0,0,2031,2012,2019,2055,1813,2051,2061,1896,0
-65,464,893,0,0,0,2037,2038,2032,2064,1968,2050,2051,1926,0
-25,465,872,-5,1,6,2019,2032,2037,2059,1997,2037,2071,1952,0
5,449,871,-6,1,6,2046,2049,2044,2062,1998,2051,2087,2008,0
25,429,878,-1,0,4,2019,2034,2045,2050,1906,2054,2066,1981,0
41,424,879,7,0,2,2011,2034,2082,2055,1948,2015,1878,2021,0
51,441,872,14,-1,0,2026,2028,2071,2061,1957,2132,2141,2026,0
63,463,860,20,-3,-2,2054,2036,2043,1965,1943,2218,2155,2134,0
80,476,837,18,-3,-6,2070,2096,2364,2016,1568,1859,2128,2185,0
99,476,818,10,-1,-13,2055,2057,2162,2001,1352,1917,2195,2156,0
95,489,818,17,1,-18,2056,2058,2175,2237,1213,2023,2128,2106,0
76,540,824,20,2,-14,2047,2028,2072,2091,945,2094,2117,2029,0
77,559,805,20,5,-15,2013,2034,2038,2067,2428,2098,2073,1940,0
68,619,801,8,6,-14,2048,2087,2074,2066,2523,2105,2087,1994,0
53,659,799,-1,7,-11,2035,2059,2094,2079,2423,1954,2071,1990,0
49,651,788,-11,9,-10,2037,2052,2098,2089,2330,2090,2069,2027,0
32,628,799,-17,8,-8,2035,2036,2088,2073,2262,2058,2055,2024,0
12,590,816,-9,5,-6,2035,2038,2085,2084,2205,2056,2051,2026,0
3,576,821,-6,2,-4,2036,2040,2082,2077,2159,2045,2056,2040,0
1,578,822,-4,1,-3,2043,2045,2084,2079,2127,2037,2060,2035,0
1,582,821,-4,0,-2,2039,2068,2086,2077,2100,2059,2049,2031,0
-1,578,823,-3,0,-1,2041,2046,2084,2074,2105,2052,2060,2030,0
-4,573,826,-2,0,0,2031,2036,2080,2081,2074,2055,2050,2033,0
-5,571,827,-1,0,0,2039,2040,2085,2072,2068,2053,2055,2045,0
-6,571,827,0,0,0,2040,2045,2078,2074,2069,2050,2049,2048,0
-6,570,828,0,0,0,2039,2042,2069,2074,2069,2046,2056,2039,0
-5,571,828,0,0,0,2041,2046,2079,2075,2067,2050,2065,2034,0
-4,573,827,0,0,0,2035,2040,2075,2079,2061,2059,2057,2041,0
-4,575,826,0,0,0,2044,2055,2091,2080,2070,2047,2057,2043,0
-4,577,825,0,0,0,2043,2050,2089,2079,2055,2050,2055,2044,0
-5,579,824,-1,0,0,2036,2046,2082,2080,2050,2057,2053,2030,0
-5,574,825,-1,0,0,2036,2044,2070,2073,2053,2061,2048,2031,0
-6,565,827,0,0,0,2032,2040,2080,2073,2046,2057,2054,2042,0
-7,561,829,2,-1,0,2049,2053,2094,2082,2060,2059,2054,2037,0
-6,563,828,4,-2,0,2032,2050,2084,2075,2043,2034,2064,2050,0
-2,572,824,4,-2,0,2040,2047,2074,2080,2043,2043,2054,2044,0
1,584,819,2,-1,0,2042,2052,2079,2074,2043,2055,2055,2041,0
2,588,817,0,0,0,2041,2048,2082,2074,2059,2053,2063,2055,0
1,587,817,0,0,0,2037,2044,2080,2081,2049,2054,2058,2054,0
0,585,817,0,0,0,2042,2055,2093,2083,2061,2050,2037,2044,0
0,585,817,0,0,0,2037,2042,2073,2075,2042,2048,2050,2038,0
0,584,818,0,0,0,2042,2046,2085,2075,2045,2048,2046,2035,0
0,583,818,0,0,0,2037,2042,2077,2079,2043,2053,2049,2057,0
0,582,818,0,0,0,2041,2048,2083,2076,2043,2050,2041,2033,0
0,582,818,0,0,0,2039,2050,2084,2081,2056,2062,2057,2046,0
0,585,818,0,0,0,2040,2044,2077,2072,2045,2035,2064,2034,0
0,588,818,0,0,0,2039,2051,2084,2081,2051,2043,2060,2051,0
0,593,818,-2,0,-1,2041,2047,2085,2077,2032,2041,2068,2052,0
-3,592,819,-4,0,-2,2037,2051,2087,2082,2052,2051,2065,2042,0
-4,582,822,-5,0,-2,2030,2045,2083,2072,2048,2053,2047,2036,0
-3,569,827,-3,0,-2,2037,2043,2075,2073,2042,2046,2060,2037,0
-4,565,828,-2,0,-1,2043,2053,2098,2096,2049,2051,2050,2051,0
-6,568,829,-3,0,-1,2040,2048,2096,2080,2034,2067,2052,2037,0
-8,561,831,-3,0,-1,2041,2049,2126,2089,2058,2104,2051,2043,0
-14,557,836,-1,0,0,2038,2042,2137,2059,1987,1903,2023,2054,0
-19,550,839,3,0,0,2023,2018,2070,2051,1983,2108,1983,2086,0
-20,547,838,11,0,-1,2031,2046,2099,2006,2047,2117,2063,2038,0
-29,560,837,14,-3,0,2015,2116,1996,2142,2077,2059,2195,2017,0
-34,591,854,19,-9,2,2010,3561,1942,2236,2017,2076,2179,2004,0
-45,588,872,17,-20,6,2049,2142,1756,2214,2100,2039,2064,2014,0
-24,572,841,29,-23,5,2044,1957,1916,2091,1923,2059,1993,2033,0
15,636,780,14,-18,7,2051,1830,1773,2051,1918,2033,1940,2015,0
24,669,748,-12,-13,10,2056,1813,2010,2052,1965,2068,1970,2041,0
41,640,736,-24,-8,12,2036,1876,2112,2049,2081,2036,2007,2041,0
66,572,755,-19,-2,8,2039,1930,2107,2080,2080,2070,2103,2054,0
63,521,786,-4,1,4,2034,1961,2167,2075,2081,2027,2084,2030,0
46,526,806,8,0,3,2034,2024,2238,2061,2054,2161,2061,2047,0
37,556,804,12,-4,3,2049,2054,2305,2025,2103,2168,2068,2074,0
49,568,791,9,-5,1,2047,1946,2121,2032,2139,1874,2086,2105,0
61,568,784,10,-3,-1,2049,1989,2147,2049,2100,1998,2090,2079,0
56,592,791,13,-3,-1,2050,2000,2079,2157,2113,2112,2093,2077,0
63,610,778,11,0,-2,2049,2010,2044,2021,2080,2087,2078,2049,0
71,622,761,2,4,-5,2038,1996,2024,2064,2034,2121,2064,2028,0
61,662,771,-7,5,-5,2036,2047,1845,2045,2021,2070,2034,2019,0
53,669,772,-13,6,-4,2034,2068,1795,2036,2036,2056,2043,2028,0
48,653,774,-20,8,-4,2020,2043,1853,2060,2045,2005,2049,2043,0
36,623,788,-21,8,-3,2022,2031,2014,2063,2051,2029,2041,2026,0
21,597,804,-17,6,-2,2039,2044,2074,2080,2050,2044,2056,2050,0
7,576,815,-11,3,-1,2040,2037,2072,2077,2041,2051,2049,2035,0
2,570,820,-8,1,0,2046,2039,2063,2070,2043,2045,2051,2047,0
1,573,822,-6,0,0,2044,2044,2029,2077,2053,2050,2066,2049,0
0,573,824,-6,0,0,2039,2037,2044,2071,2039,2053,2054,2033,0
-2,568,828,-5,0,0,2042,2045,2059,2069,2046,2050,2066,2040,0
-4,562,831,-4,0,0,2035,2034,2052,2071,2050,2055,2057,2045,0
-5,558,834,-3,0,0,2043,2078,2046,2069,2041,2051,2056,2054,0
-5,557,835,-2,0,0,2041,2047,2051,2071,2051,2050,2054,2036,0
-5,556,836,-2,0,0,2036,2036,2054,2072,2043,2058,2048,2035,0
-5,554,837,-1,0,0,2047,2044,2051,2077,2059,2055,2065,2042,0
-5,552,839,-1,0,0,2033,2041,2046,2069,2023,2048,2041,2045,0
-6,550,840,0,0,0,2042,2057,2050,2073,2048,2056,2045,2034,0
-7,549,841,0,0,0,2036,2042,2047,2066,2033,2052,2067,2039,0
-7,548,842,0,0,0,2039,2035,2044,2068,2042,2045,2049,2046,0
-7,547,843,0,0,0,2037,2047,2045,2066,2048,2054,2061,2047,0
-7,546,844,0,0,0,2044,2040,2047,2071,2039,2055,2049,2048,0
-7,545,844,0,0,0,2032,2039,2041,2073,2032,2049,2063,2053,0
-7,546,844,0,0,0,2042,2047,2056,2074,2048,2050,2071,2043,0
-7,547,844,0,0,0,2035,2044,2044,2069,2038,2056,2050,2044,0
-7,545,845,0,0,0,2039,2053,2043,2074,2048,2051,2063,2050,0
-7,542,846,0,0,0,2045,2051,2041,2073,2043,2048,2060,2053,0
-6,542,846,0,0,0,2042,2046,2038,2072,2036,2056,2060,2040,0
-6,545,845,0,0,0,2050,2051,2049,2072,2053,2072,2052,2051,0
-7,545,844,0,0,0,2042,2045,2050,2072,2045,2046,2048,2043,0
-8,546,845,0,0,0,2021,2026,2033,2055,2039,2034,2035,2033,0
-8,544,845,0,0,0,2037,2041,2050,2075,2038,2056,2070,2050,0
-10,544,846,0,0,0,2039,2042,2041,2064,2026,2050,2041,2035,0
-12,539,847,0,0,0,2041,2047,2060,2069,2054,2038,2056,2048,0
-12,537,848,1,0,0,2037,2037,2044,2056,2031,2052,2048,2043,0
-11,540,847,1,0,0,2034,2044,2046,2065,2028,2051,2062,2053,0
-10,541,847,1,0,0,2039,2044,2044,2066,2042,2055,2046,2054,0
-9,542,847,0,0,0,2037,2043,2047,2068,2040,2033,2045,2038,0
-9,541,847,0,0,0,2042,2048,2060,2074,2050,2029,2057,2051,0
-9,542,846,0,0,0,2039,2042,2057,2068,2046,2054,2056,2048,0
-10,544,845,1,0,0,2037,2038,2075,2065,2030,2054,2050,2054,0
-12,544,845,3,0,0,2045,2049,2106,2071,2045,2062,2061,2041,0
-14,544,844,4,0,0,2043,2040,2090,2070,2041,2061,2051,2040,0
-14,546,842,4,0,0,2050,2053,2069,2069,2039,2057,2061,2045,0
-14,551,838,4,0,0,2040,2052,2056,2067,2043,2058,2052,2050,0
-13,558,834,3,0,0,2043,2050,2046,2068,2042,2055,2042,2046,0
-11,564,831,1,0,0,2038,2050,2060,2068,2052,2047,2056,2053,0
-11,568,830,0,0,0,2034,2044,2029,2060,2032,2042,2047,2040,0
-12,569,829,0,0,0,2043,2047,2059,2070,2039,2037,2050,2055,0
-13,569,829,0,0,0,2048,2061,2098,2071,2003,1668,2004,2043,0
-14,567,831,2,0,0,2032,2043,2110,2095,2027,2209,1991,2046,0
-14,563,830,12,1,0,2050,2063,2446,2176,2090,2111,1962,2067,0
-19,567,830,13,-1,0,2087,2166,2087,2162,2112,2099,2022,2059,0
-28,553,844,21,-7,2,2044,2134,2034,2069,2022,2004,2159,2057,0
-40,545,850,41,-14,5,2038,2607,2069,2090,1033,2064,2267,2054,0
-33,578,824,45,-18,6,2012,2132,2014,2070,1964,2070,2204,1991,0
-15,616,786,45,-20,6,2067,1884,1895,2068,2418,2029,2175,2011,0
3,690,739,34,-19,8,2028,2016,1944,2075,2336,2061,2160,1970,0
27,741,697,11,-17,9,2031,2008,1876,2083,2289,2051,1979,2056,0
57,736,676,-7,-11,6,2083,1858,1918,2074,2090,2154,1859,2606,0
66,718,678,-17,-7,5,2044,1998,1902,2088,2095,1998,1470,4092,0
70,696,696,-21,-5,5,2025,1940,2030,2085,2107,2071,1411,2862,0
77,672,711,-18,-3,4,2034,1965,2069,2068,2067,2098,2076,1305,0
70,667,720,-19,-4,6,2026,2008,2069,2064,2066,2034,2161,1561,0
73,653,731,-19,-4,5,2036,2033,2062,2066,2062,2021,2146,1741,0
81,631,746,-14,-4,4,2040,2031,2056,2065,1989,2053,2172,1821,0
84,621,758,-10,-4,3,2048,2043,2066,2073,2023,2009,2130,1886,0
90,614,765,-6,-3,2,2047,2041,2051,2065,2023,2065,2096,1949,0
93,613,766,-3,-2,1,2043,2025,2052,2065,2047,2072,2076,1982,0
97,618,768,-3,-1,0,2043,2047,2044,2066,2056,2038,2081,2014,0
97,619,774,-2,-1,0,2040,2048,2044,2071,2036,2063,2073,1984,0
99,618,776,-1,-1,0,2033,2058,2044,2068,2058,2075,2076,2026,0
101,618,780,0,-1,0,2047,2055,2044,2068,2031,2047,2062,2033,0
102,620,781,0,-1,0,2023,2077,2039,2069,2035,2046,2052,1980,0
106,619,780,-1,-1,0,2025,2047,2040,2064,2054,2049,2072,2033,0
107,618,782,-2,-1,0,2046,2052,2034,2071,2053,2039,2065,2018,0
107,616,784,-2,-1,0,2052,2048,2045,2069,2056,2061,2083,2046,0
108,613,786,-2,-1,0,2039,2047,2055,2069,2055,2047,2070,2047,0
109,610,789,-1,-1,1,2051,2046,2043,2064,2044,2056,2061,2028,0
110,608,792,0,-1,1,2049,2059,2043,2070,2061,2032,2052,2041,0
112,605,792,0,-1,0,2036,2044,2050,2066,2051,2065,2060,2031,0
112,603,792,0,-1,0,2044,2059,2045,2064,2043,2066,2062,2037,0
114,600,794,0,-1,0,2046,2044,2048,2069,2048,2027,2059,2029,0
114,596,797,0,-1,0,2030,2045,2042,2056,2042,2077,2062,2031,0
115,594,798,0,-1,0,2048,2054,2041,2066,2019,2037,2052,2056,0
115,594,799,0,-1,0,2024,2030,2037,2062,2007,2061,2053,2010,0
116,596,799,0,-1,0,2040,2039,2043,2070,2047,2016,2044,2064,0
118,594,799,0,0,0,2035,2043,2045,2065,2054,2068,2064,2037,0
116,596,800,-1,0,0,2050,2039,2042,2069,2048,2065,2072,2058,0
117,593,802,0,0,0,2032,2046,2052,2068,2059,2043,2069,2047,0
114,592,805,0,-1,0,2032,2040,2045,2065,2040,2068,2066,2026,0
115,589,806,0,-1,0,2033,2035,2047,2064,2035,2046,2053,2044,0
115,589,806,0,-1,0,2040,2048,2046,2067,2044,2038,2058,2071,0
116,589,806,0,-1,0,2039,2045,2048,2068,2043,2052,2058,2033,0
116,589,806,0,-1,0,2050,2042,2042,2074,2056,2053,2060,2059,0
117,588,806,0,-1,0,2058,2040,2039,2069,2050,2046,2053,2051,0
117,589,807,0,-1,0,2039,2055,2038,2073,2059,2071,2062,2042,0
117,589,807,0,-1,0,2052,2051,2042,2071,2044,2039,2060,2087,0
117,590,807,0,-1,0,2036,2047,2042,2065,2042,2049,2056,2048,0
118,588,807,0,-1,0,2039,2050,2042,2065,2046,2043,2052,2037,0
117,587,807,0,-1,0,2038,2038,2040,2063,2054,2066,2058,2049,0
117,586,808,0,-1,0,2045,2047,2048,2063,2045,2058,2066,2031,0
117,585,809,0,-1,0,2034,2048,2058,2067,2049,1973,2061,2037,0
119,580,808,0,-1,0,2027,2040,2048,2070,2048,2073,2058,1991,0
119,576,807,3,0,0,2035,2050,2042,2065,2052,2104,2044,2064,0
116,587,807,2,0,0,2055,2047,2044,2065,2037,2060,2052,2040,0
116,594,806,0,0,0,2043,2052,2049,2070,2050,2031,2062,2004,0
116,592,806,0,0,0,2042,2052,2048,2061,2049,2040,2060,2073,0
115,590,806,0,0,0,2037,2046,2041,2068,2033,2046,2052,2028,0
114,591,804,0,0,0,2047,2050,2039,2068,2039,2078,2055,2062,0
115,593,804,0,0,0,2027,2034,2030,2059,2026,2051,2051,2014,0
116,593,806,0,0,0,2040,2051,2040,2067,2048,2034,2061,2043,0
115,591,807,0,0,0,2040,2043,2050,2066,2049,2046,2066,2041,0
115,589,807,0,0,0,2035,2041,2044,2068,2040,2031,2053,2047,0
115,588,806,0,0,0,2049,2056,2048,2072,2058,2080,2063,2062,0
117,588,806,0,0,0,2043,2043,2046,2067,2051,2035,2060,2052,0
116,589,806,0,0,0,2031,2039,2042,2066,2039,2058,2055,2041,0
116,588,805,0,0,0,2039,2053,2043,2066,2046,2031,2056,2050,0
116,587,805,0,0,0,2035,2042,2044,2065,2044,2082,2058,2038,0
115,588,805,0,0,0,2034,2046,2040,2064,2031,2041,2050,2056,0
115,589,806,0,0,0,2037,2046,2047,2068,2047,2041,2058,2064,0
114,590,806,0,0,0,2023,2044,2041,2064,2040,2055,2056,2001,0
115,590,805,0,0,0,2040,2046,2041,2067,2048,2054,2044,2047,0
115,590,805,0,0,0,2032,2040,2044,2066,2045,2049,2055,2032,0
115,592,805,0,0,0,2037,2043,2044,2064,2039,2040,2055,2030,0
115,590,806,0,0,0,2030,2047,2054,2067,2047,2050,2069,2060,0
115,587,806,0,0,0,2031,2038,2046,2065,2041,2022,2055,2048,0
116,585,806,0,0,0,2046,2050,2052,2069,2050,2054,2059,2057,0
116,583,805,1,0,0,2042,2050,2044,2069,2050,2078,2052,2065,0
114,590,804,0,0,0,2026,2045,2039,2067,2042,2094,2050,2040,0
114,596,804,0,0,0,2041,2044,2043,2069,2048,2014,2055,2062,0
114,596,804,0,0,0,2023,2033,2042,2058,2036,2042,2044,1979,0
113,594,803,0,0,0,2043,2049,2046,2068,2041,2058,2067,2075,0
113,594,803,0,0,0,2034,2042,2043,2064,2035,2041,2058,2041,0
113,593,804,0,0,0,2037,2050,2034,2064,1989,1986,2061,2061,0
112,592,806,0,0,0,2041,2057,2042,2095,2067,1994,2056,2040,0
110,592,808,0,0,0,2030,2046,2044,2059,2005,2089,2044,2040,0
107,594,810,6,-2,1,2024,2036,2058,2070,1940,2097,2077,1995,0
104,610,800,14,-3,3,2043,2116,2055,2057,1927,2437,2216,1978,0
116,629,758,7,-2,5,2080,2618,2398,2266,2018,1838,2413,2180,0
159,573,727,-18,6,0,2064,2065,2113,2192,2202,1870,2544,2571,0
168,502,751,-11,16,-10,2034,1877,2171,2001,2017,1994,2027,2178,0
117,515,805,2,15,-10,2043,1954,2086,2055,2095,2199,1942,2027,0
99,544,824,9,17,-11,2033,1960,2105,2103,2040,1865,1934,1925,0
78,636,820,10,16,-8,2047,2010,2040,2064,2071,2140,1963,2010,0
57,640,802,-6,12,-6,2033,2004,2129,2098,2036,2010,1983,1997,0
43,616,813,-5,10,-5,2035,2008,2071,2056,2043,2076,1991,1993,0
32,592,823,0,6,-3,2038,2020,2103,2089,2034,2053,2002,1997,0
24,590,821,0,3,-2,2039,2027,2081,2070,2037,2049,2020,2018,0
24,592,819,0,2,-1,2035,2032,2079,2073,2037,2059,2027,2005,0
22,590,819,0,1,0,2039,2045,2090,2079,2039,2061,2027,2019,0
18,584,820,1,0,0,2034,2025,2086,2079,2035,2044,2038,2040,0
16,585,819,1,0,0,2038,2035,2088,2076,2040,2046,2040,2007,0
16,588,818,0,0,0,2049,2039,2085,2075,2048,2057,2030,2010,0
15,587,818,0,0,0,2030,2044,2078,2072,2037,2055,2040,2028,0
14,586,818,0,0,0,2031,2036,2071,2078,2051,2047,2040,2038,0
15,586,817,0,0,0,2035,2049,2094,2079,2050,2052,2043,2033,0
14,589,816,0,0,0,2039,2040,2073,2077,2034,2053,2054,2032,0
13,589,815,0,0,0,2038,2047,2084,2081,2054,2051,2053,2028,0
13,590,815,0,0,0,2038,2043,2082,2079,2037,2051,2046,2039,0
12,589,815,0,0,0,2043,2053,2089,2084,2043,2056,2048,2043,0
12,587,815,0,0,0,2041,2048,2084,2081,2046,2056,2053,2038,0
12,587,815,0,0,0,2038,2045,2085,2081,2036,2056,2044,2041,0
11,587,815,0,0,0,2041,2050,2088,2079,2046,2054,2047,2056,0
11,587,815,0,0,0,2038,2039,2088,2082,2027,2052,2060,2042,0
11,588,814,0,0,0,2039,2049,2075,2075,2033,2050,2054,2052,0
11,588,814,0,0,0,2043,2044,2082,2081,2041,2048,2055,2031,0
11,588,814,0,0,0,2040,2045,2080,2073,2038,2056,2042,2033,0
12,589,813,0,0,0,2040,2055,2095,2081,2057,2052,2048,2046,0
12,589,813,0,0,0,2026,2043,2076,2080,2038,2043,2053,2035,0
12,588,813,0,0,0,2046,2045,2079,2074,2042,2046,2048,2058,0
12,588,813,0,0,0,2038,2041,2079,2078,2032,2050,2053,2031,0
12,587,814,0,0,0,2041,2040,2078,2075,2046,2054,2052,2031,0
12,587,814,0,0,0,2037,2043,2082,2078,2037,2051,2050,2036,0
12,588,814,0,0,0,2042,2043,2077,2072,2048,2046,2050,2033,0
12,588,814,0,0,0,2041,2040,2074,2077,2033,2049,2050,2040,0
12,588,814,0,0,0,2045,2052,2082,2080,2055,2052,2045,2042,0
13,589,813,0,0,0,2035,2049,2081,2074,2048,2058,2046,2029,0
13,589,813,0,0,0,2039,2052,2073,2076,2040,2053,2045,2050,0
13,589,813,0,0,0,2040,2045,2062,2085,2034,2056,2053,2041,0
13,589,813,0,0,0,2038,2041,2062,2077,2038,2047,2057,2037,0
14,589,813,0,0,0,2043,2046,2082,2080,2048,2045,2055,2040,0
14,591,813,0,0,0,2038,2044,2085,2076,2053,2051,2052,2032,0
13,593,813,0,0,0,2041,2046,2081,2082,2047,2056,2058,2051,0
10,592,813,0,0,0,2038,2046,2084,2078,2037,2056,2045,2054,0
8,588,814,0,0,0,2039,2047,2081,2076,2043,2065,2050,2033,0
7,583,816,0,0,0,2039,2048,2083,2078,2037,2051,2055,2052,0
7,581,817,0,0,0,2036,2042,2073,2071,2043,2038,2045,2040,0
9,582,817,0,0,0,2037,2049,2077,2077,2045,2051,2050,2039,0
11,584,816,0,0,0,2040,2048,2082,2076,2039,2051,2051,2035,0
11,585,815,0,0,0,2036,2046,2071,2074,2044,2051,2053,2045,0
11,585,815,0,0,0,2043,2045,2078,2082,2055,2055,2055,2055,0
11,585,815,0,0,0,2035,2041,2076,2075,2038,2049,2049,2041,0
10,586,815,0,0,0,2046,2044,2079,2067,2055,2055,2041,2039,0
9,588,815,0,0,0,2044,2051,2077,2083,2043,2056,2054,2040,0
9,587,815,0,0,0,2039,2047,2078,2077,2042,2055,2048,2044,0
9,586,815,0,0,0,2042,2048,2081,2079,2044,2049,2056,2046,0
9,585,815,0,0,0,2041,2048,2079,2080,2041,2050,2052,2052,0
8,585,816,0,0,0,2034,2043,2074,2078,2037,2054,2053,2039,0
7,583,816,0,0,0,2042,2052,2083,2080,2046,2059,2059,2044,0
6,582,816,0,0,0,2038,2041,2077,2079,2041,2061,2054,2046,0
5,582,816,0,0,0,2042,2050,2082,2076,2052,2051,2050,2046,0
5,583,816,0,0,0,2043,2043,2077,2073,2043,2054,2063,2044,0
6,585,816,0,0,0,2041,2043,2073,2081,2050,2047,2054,2049,0
8,586,816,0,0,0,2044,2047,2081,2083,2042,2050,2062,2039,0
10,586,816,0,0,0,2029,2044,2072,2071,2034,2050,2054,2035,0
10,587,816,0,0,0,2039,2048,2079,2077,2041,2050,2062,2039,0
10,587,815,0,0,0,2033,2041,2074,2078,2037,2054,2047,2040,0
10,587,815,0,0,0,2033,2046,2082,2078,2036,2039,2047,2046,0
10,588,814,0,0,0,2046,2048,2083,2077,2046,2055,2054,2039,0
11,588,814,0,0,0,2039,2047,2071,2076,2034,2052,2049,2037,0
11,587,814,0,0,0,2043,2051,2079,2081,2046,2051,2060,2047,0
12,587,814,0,0,0,2037,2045,2077,2083,2053,2047,2058,2039,0
13,589,814,0,0,0,2037,2040,2074,2070,2040,2052,2049,2051,0
13,590,813,0,0,0,2044,2053,2082,2082,2054,2050,2057,2036,0
13,590,812,0,0,0,2038,2043,2080,2079,2043,2052,2049,2051,0
13,589,812,0,0,0,2041,2047,2075,2081,2046,2058,2058,2039,0
13,587,813,0,0,0,2033,2041,2076,2074,2048,2051,2036,2025,0
12,587,813,0,0,0,2042,2046,2069,2077,2034,2052,2051,2046,0
12,588,813,0,0,0,2043,2052,2079,2077,2047,2052,2053,2040,0
12,589,813,0,0,0,2034,2045,2077,2082,2038,2053,2048,2042,0
12,589,813,0,0,0,2044,2047,2080,2079,2045,2051,2056,2043,0
12,589,813,0,0,0,2039,2046,2081,2080,2051,2047,2056,2054,0
12,591,812,0,0,0,2040,2038,2068,2075,2035,2045,2045,2042,0
13,592,812,0,0,0,2039,2050,2079,2076,2051,2053,2050,2052,0
14,592,812,0,0,0,2035,2043,2073,2076,2033,2046,2049,2045,0
14,592,812,0,0,0,2035,2049,2073,2078,2032,2050,2047,2036,0
14,594,811,0,0,0,2041,2044,2078,2077,2047,2049,2051,2038,0
14,594,811,0,0,0,2032,2045,2074,2074,2039,2052,2047,2045,0
14,592,811,0,0,0,2041,2048,2083,2080,2057,2058,2054,2055,0
14,592,811,0,0,0,2042,2040,2073,2081,2035,2051,2054,2036,0
14,592,811,0,0,0,2045,2047,2075,2075,2043,2051,2049,2043,0
14,593,811,0,0,0,2040,2053,2075,2079,2053,2052,2057,2049,0
14,593,811,0,0,0,2042,2046,2078,2080,2042,2054,2039,2041,0
14,592,811,0,0,0,2039,2051,2076,2080,2035,2050,2053,2052,0
14,592,811,0,0,0,2043,2048,2083,2084,2056,2053,2058,2048,0
14,592,811,0,0,0,2040,2045,2068,2074,2043,2050,2048,2051,0
14,592,811,0,0,0,2041,2051,2078,2081,2059,2050,2054,2039,0
14,592,811,0,0,0,2038,2044,2075,2070,2047,2053,2050,2044,0
14,592,811,0,0,0,2044,2048,2074,2077,2027,2057,2049,2046,0
14,592,811,0,0,0,2039,2048,2078,2079,2044,2053,2057,2045,0
14,592,811,0,0,0,2034,2040,2075,2077,2035,2045,2047,2043,0
14,593,811,0,0,0,2044,2056,2079,2079,2052,2058,2050,2033,0
14,593,811,0,0,0,2034,2041,2067,2080,2040,2049,2054,2040,0
13,591,811,0,0,0,2036,2046,2064,2075,2036,2050,2047,2043,0
12,590,811,0,0,0,2039,2041,2074,2075,2047,2048,2053,2047,0
12,590,811,0,0,0,2040,2051,2066,2067,2050,2051,2034,2037,0
12,591,811,0,0,0,2042,2051,2067,2079,2042,2050,2060,2042,0
13,592,811,0,0,0,2041,2050,2062,2082,2059,2052,2045,2040,0
13,592,811,0,0,0,2049,2043,2054,2079,2042,2052,2060,2042,0
12,590,812,0,0,0,2036,2045,2065,2079,2036,2054,2055,2048,0
11,588,813,0,0,0,2034,2046,2057,2075,2041,2053,2048,2051,0
10,587,814,0,0,0,2043,2044,2064,2078,2049,2056,2059,2041,0
9,587,814,0,0,0,2043,2050,2075,2080,2059,2059,2056,2039,0
8,587,814,0,0,0,2035,2049,2071,2081,2040,2053,2054,2038,0
7,585,815,0,0,0,2041,2046,2071,2079,2050,2050,2054,2043,0
7,583,816,0,0,0,2039,2045,2066,2076,2054,2049,2045,2039,0
7,583,816,0,0,0,2043,2046,2054,2078,2041,2052,2048,2049,0
7,585,816,0,0,0,2035,2050,2027,2076,2049,2040,2061,2042,0
7,588,816,0,0,0,2037,2042,1982,2075,2049,2059,2053,2044,0
7,591,815,-2,0,-1,2040,2046,2043,2074,2049,2060,2058,2043,0
6,589,816,-3,0,-1,2035,2039,2055,2075,2036,2049,2049,2045,0
3,581,819,-2,0,-1,2039,2042,2069,2074,2033,2055,2053,2052,0
1,574,822,-1,0,0,2037,2048,2066,2078,2047,2049,2054,2041,0
1,572,824,0,0,0,2041,2043,2067,2073,2050,2048,2052,2048,0
1,573,824,0,0,0,2041,2053,2089,2081,2040,2050,2056,2054,0
0,571,825,0,0,0,2042,2047,2102,2073,2045,2058,2050,2042,0
-1,569,826,0,0,0,2039,2044,2106,2076,2041,2063,2054,2043,0
-1,569,826,0,0,0,2043,2042,2065,2075,2043,2042,2056,2038,0
0,572,826,1,0,0,2036,2045,1995,2010,2049,2042,2055,2044,0
2,578,824,0,0,0,2046,2052,2027,1840,2049,2058,2052,2049,0
0,577,823,0,0,0,2038,2048,2071,2003,2042,2076,2053,2033,0
-2,576,823,0,0,0,2039,2051,2087,2071,2054,2177,2048,2062,0
-3,573,824,0,0,0,2032,2042,2190,2092,2087,1765,1996,2041,0
-3,575,826,6,0,0,2019,2014,2268,2038,2073,2185,1869,2040,0
-5,571,824,14,0,0,2023,2058,2130,1821,2064,2153,1917,2075,0
-9,566,821,19,-1,0,1990,2119,2001,1240,2488,2029,2259,2021,0
-12,592,831,29,-7,2,1999,2318,1621,2143,2557,1973,2681,2100,0
-35,621,861,37,-21,5,2054,1971,627,2112,3361,2099,2208,2007,0
-36,615,817,34,-26,8,2049,2072,19,1989,2798,1935,1075,3594,0
28,661,742,18,-17,9,4088,2153,2760,2249,1854,2643,2360,3104,0
35,783,720,-25,-17,23,1973,1905,3398,2202,1647,1994,2271,1676,0
37,756,721,-31,-18,43,1312,1835,2466,2057,1659,1955,1872,1306,0
67,654,701,-9,-9,48,1608,1976,2072,2053,1846,2243,1851,1587,0
100,602,711,-7,-4,41,1909,2043,2179,2086,1881,1959,2087,1831,0
116,582,746,-9,-3,35,1829,2013,2075,2056,1862,1978,1992,1855,0
127,559,760,-2,-3,30,1915,2019,2049,2056,1896,1943,1982,1917,0
145,548,764,0,-2,22,1994,2045,2081,2072,1941,2065,2036,1999,0
154,555,773,2,-2,17,1994,2027,2094,2075,1971,2088,2057,2033,0
166,567,775,1,-2,13,2000,2044,2058,2070,1987,1947,2032,2007,0
180,566,776,1,-1,9,2013,2044,2057,2065,1993,2070,2042,2024,0
186,570,777,2,-1,6,2015,2042,2072,2065,2028,2079,2037,2057,0
191,579,777,1,-1,4,2019,2034,2046,2063,2019,2029,2046,2029,0
197,581,777,1,-1,3,2039,2039,2061,2062,2017,2085,2046,2095,0
199,586,777,1,-1,2,2032,2042,2050,2061,2021,2060,2051,2036,0
201,594,778,0,-1,1,2035,2046,2060,2064,2018,2032,2052,2026,0
203,594,778,0,-1,0,2039,2033,2056,2059,2028,2038,2036,2047,0
205,593,778,0,-1,0,2042,2052,2035,2062,2016,2046,2037,2039,0
206,595,777,0,-1,0,2048,2066,2054,2067,2031,2110,2048,2068,0
207,600,776,0,-1,0,2028,2046,2056,2064,2037,2048,2055,2058,0
208,602,777,0,-1,0,2034,2049,2040,2055,2024,2032,2050,2033,0
207,601,778,0,-1,0,2050,2050,2046,2065,2037,2048,2050,2039,0
207,600,777,0,-1,0,2015,2026,2028,2049,2020,2073,2030,1981,0
209,602,776,0,-1,0,2049,2045,2046,2063,2038,2049,2057,2057,0
210,603,777,0,-1,0,2034,2035,2046,2061,2035,2036,2054,2054,0
211,600,777,0,-1,0,2037,2037,2046,2060,2038,2060,2052,2052,0
210,599,777,0,-1,0,2020,2047,2051,2064,2035,2060,2048,2075,0
211,600,777,0,-1,0,2040,2046,2049,2064,2026,2053,2049,2039,0
211,601,777,0,-1,0,2030,2038,2045,2052,2036,2039,2040,2022,0
213,599,777,0,-1,0,2041,2051,2047,2062,2043,2048,2049,2009,0
213,599,777,0,-1,0,2031,2036,2040,2058,2032,2060,2041,2039,0
213,600,777,0,-1,0,2039,2051,2041,2067,2045,2071,2048,2036,0
213,601,777,0,-1,0,2045,2047,2037,2061,2040,2065,2057,2034,0
213,601,778,0,-1,0,2032,2047,2053,2065,2052,2054,2051,2033,0
213,599,779,0,-1,0,2062,2062,2049,2065,2044,2025,2048,2047,0
214,596,779,0,-1,0,2032,2044,2054,2060,2042,2090,2054,2022,0
215,595,779,0,-1,0,2042,2064,2055,2064,2050,2057,2053,2044,0
215,596,780,0,-1,0,2024,2030,2043,2056,2038,2062,2046,2029,0
214,596,781,0,-1,0,2039,2047,2045,2060,2039,2045,2049,2079,0
214,596,781,0,-1,0,2051,2055,2049,2059,2046,2058,2052,2042,0
215,595,780,0,-1,0,2011,2030,2028,2053,2028,2047,2037,2004,0
216,595,780,0,-1,0,2039,2055,2057,2068,2050,2070,2057,2013,0
216,596,780,0,-1,0,2039,2040,2040,2063,2039,2040,2048,2064,0
217,594,781,0,-1,0,2047,2048,2047,2064,2038,2063,2065,2043,0
216,593,782,0,-1,0,2041,2045,2035,2063,2045,2045,2055,2024,0
217,592,782,0,-1,0,2041,2048,2036,2061,2043,2058,2059,2039,0
217,594,782,0,-1,0,2050,2049,2023,2061,2045,2043,2048,2060,0
218,592,782,0,-1,0,2044,2044,2036,2060,2047,2065,2044,2028,0
217,595,781,0,-1,0,2043,2040,2033,2058,2037,2067,2049,2024,0
218,595,782,0,-1,0,2059,2055,2045,2067,2031,2052,2054,2058,0
218,592,783,0,-1,0,2038,2043,2050,2064,2043,2053,2058,1993,0
217,592,784,0,-1,0,2037,2047,2048,2063,2041,2056,2050,2067,0
218,591,784,0,-1,0,2033,2047,2040,2069,2046,2055,2048,2029,0
218,591,784,0,-1,0,2035,2042,2044,2062,2047,2054,2052,2020,0
218,590,784,0,-1,0,2045,2059,2053,2065,2064,2058,2057,2070,0
218,589,785,0,-1,0,2035,2045,2054,2068,2030,2013,2087,2036,0
217,588,786,0,-1,0,2038,2044,2093,2151,2026,1777,2292,2048,0
216,578,791,3,-2,0,2024,2020,1805,2061,1994,2050,2516,2209,0
209,563,793,19,-5,-2,2013,2173,2111,2047,2085,2248,2282,2159,0
207,555,772,35,-9,-7,2061,2164,2392,2032,2104,2039,2107,2120,0
222,566,747,32,-8,-12,2060,2006,1962,1951,2082,1821,2194,2151,0
224,581,739,40,-7,-16,2040,1938,1593,1704,2076,2204,2080,2084,0
206,650,731,41,-7,-13,2002,1987,1360,2136,2060,2196,1991,1990,0
199,735,700,27,-7,-8,2030,1967,1582,2145,2032,2168,1977,1943,0
201,770,669,5,-5,-3,2052,2011,2041,2122,2037,1943,1954,1946,0
205,754,655,-8,-3,0,2060,2058,2097,2106,2039,1821,1957,2013,0
206,720,657,-10,-1,0,2042,2043,2059,2079,2043,2156,1991,1998,0
207,699,663,-7,0,0,2052,2061,2080,2088,2045,2095,2021,2010,0
207,697,672,-10,0,0,2038,2042,2020,2079,2050,2052,2031,2011,0
205,689,685,-8,0,0,2037,2055,2039,2062,2033,2099,2064,2038,0
197,685,695,-6,0,0,2023,2035,2018,2066,2033,1989,2030,2029,0
194,681,701,-5,0,0,2034,2056,2028,2068,2038,2058,2037,2019,0
195,681,703,-5,0,0,2019,2041,2005,2055,2023,2034,2032,2024,0
199,676,707,-3,0,0,2029,2043,2032,2066,2041,2027,2052,2030,0
198,673,709,-2,0,0,2045,2065,2036,2071,2051,2078,2060,2045,0
198,671,711,-1,0,0,2028,2030,2012,2059,2044,2022,2036,2022,0
197,669,715,0,0,0,2033,2039,2025,2060,2033,2094,2046,2036,0
196,670,717,0,0,0,2038,2048,2030,2064,2047,2047,2054,2054,0
196,670,718,0,0,0,2042,2048,2035,2066,2055,2011,2062,2002,0
197,666,720,0,0,0,2045,2054,2036,2064,2046,2049,2061,2038,0
197,664,721,0,0,0,2043,2052,2026,2062,2033,2072,2042,2057,0
197,667,721,0,0,0,2042,2049,2024,2063,2041,2081,2051,2039,0
197,668,722,0,0,0,2046,2050,2030,2063,2039,2041,2067,2050,0
196,667,723,0,0,0,2032,2039,2028,2067,2035,2037,2064,2050,0
196,663,724,0,0,0,2036,2053,2034,2063,2039,2033,2055,2034,0
196,662,725,0,0,0,2048,2049,2045,2065,2049,2068,2068,2016,0
197,661,725,0,0,0,2035,2043,2029,2069,2042,2017,2052,2045,0
198,658,725,1,0,0,2036,2052,2029,2067,2043,2110,2041,2035,0
195,665,724,0,0,0,2046,2045,2024,2064,2043,2019,2040,2026,0
197,669,723,-1,0,0,2030,2049,2031,2068,2048,2058,2065,2047,0
196,667,723,-1,0,0,2043,2048,2038,2065,2041,2019,2068,2044,0
195,664,724,0,0,0,2036,2042,2043,2057,1994,2022,2066,2075,0
195,661,726,0,0,0,2049,2049,2084,2066,2063,2059,2037,2039,0
195,655,729,3,0,0,2032,2025,2186,2058,2016,2130,1970,2024,0
192,648,729,12,-2,0,2029,2034,2145,2067,1932,2129,2051,1997,0
192,640,719,23,-4,-2,2063,2150,2347,2100,1937,2005,2083,2081,0
197,653,695,25,-4,-4,2050,2096,2105,2120,1896,1942,2084,2096,0
206,678,670,20,-1,-5,2071,2262,2026,2102,1929,2157,2069,2180,0
206,711,658,8,1,-4,2099,2090,1984,2051,1957,2015,2085,2035,0
197,730,661,-4,1,-3,2032,2039,2063,1965,2061,2054,2089,2042,0
198,729,661,-13,2,-4,2035,2030,2049,2079,2119,1952,2069,2110,0
194,716,667,-19,4,-5,2015,1950,1999,2085,2058,2140,2068,1923,0
186,710,684,-18,5,-4,2023,2006,2011,2058,2038,2103,2059,2013,0
173,704,705,-18,4,-2,2030,2029,1999,2055,2017,1996,2054,2023,0
166,680,722,-13,2,-1,2026,2037,2056,2150,1984,2054,2051,2079,0
159,666,731,-9,1,0,1994,2061,2107,2038,2032,2065,2060,2059,0
158,656,732,-6,0,0,2014,2038,2173,2031,2043,2093,2060,2083,0
160,643,732,-2,0,-1,2048,2048,2208,2037,2070,2003,2087,2090,0
160,638,731,0,1,-2,2038,2049,2190,2156,2064,2050,2087,2070,0
155,652,736,0,2,-3,2033,2036,2103,2101,2049,2045,2072,2022,0
145,671,740,-1,1,-2,2039,2031,2100,2081,2043,2039,2061,2032,0
137,677,741,-2,0,-1,2041,2029,2090,2080,2030,2041,2043,2036,0
132,674,743,-2,0,0,2056,2022,2098,2075,2038,2056,2048,2042,0
129,670,745,-2,0,0,2045,2040,2092,2074,2038,2056,2045,2052,0
127,665,746,-2,0,0,2041,2037,2088,2075,2041,2052,2054,2039,0
126,662,747,-2,0,0,2041,2051,2090,2075,2056,2050,2049,2058,0
124,659,749,-1,0,0,2035,2044,2083,2075,2044,2053,2039,2021,0
122,656,751,0,0,0,2046,2047,2083,2071,2055,2043,2053,2032,0
120,654,752,0,0,0,2036,2052,2076,2078,2041,2045,2045,2041,0
118,653,752,1,0,0,2041,2047,2082,2071,2040,2044,2060,2024,0
116,654,751,1,0,0,2044,2060,2089,2088,2049,2052,2052,2044,0
114,657,750,1,0,0,2033,2050,2081,2080,2050,2047,2036,2065,0
112,659,748,0,0,0,2043,2043,2089,2084,2037,2042,2004,2051,0
110,660,748,0,0,0,2042,2046,2090,2085,2035,2033,1995,2097,0
108,656,746,1,0,0,2037,2038,2090,2065,2005,2004,1851,2081,0
107,650,745,3,1,-1,2073,2080,2126,2106,0,2015,1851,2119,0
102,649,747,8,1,-2,2030,2062,2100,2062,0,2030,1820,2045,0
95,658,746,14,1,-2,1998,2027,2044,1939,2108,2084,1930,1972,0
90,673,740,19,0,-1,2024,2073,2068,1790,2950,2037,2086,2018,0
83,691,735,19,-2,0,2024,2007,2014,1982,2749,2105,2226,1992,0
76,702,729,22,-4,1,2041,2032,2068,2091,2574,2065,2251,2027,0
75,726,711,19,-6,3,2044,2052,2091,2144,2437,2048,2196,2025,0
81,735,688,12,-6,4,2034,2048,2087,2091,2337,2051,2109,2029,0
91,733,673,6,-5,3,2051,2057,2120,2076,2204,2054,2069,2030,0
96,727,670,4,-4,2,2020,2052,2120,2066,2178,2091,2031,2036,0
102,716,666,2,-3,0,2038,2106,2075,2057,2183,2113,1907,2046,0
103,710,667,4,-3,-1,2078,2218,2095,1887,359,1986,1726,2168,0
104,710,663,6,-2,-2,2069,2148,2074,955,604,1760,1434,2556,0
113,701,648,8,1,-4,2090,2216,2106,2614,0,2036,1781,2006,0
117,705,638,9,6,-10,2012,1906,1999,2378,2539,2222,2345,1723,0
100,760,641,0,7,-12,2057,1721,1979,2166,2557,2297,2406,1902,0
87,813,624,-13,10,-11,2111,2120,2057,2180,2325,2120,2220,1918,0
85,832,603,-41,15,-13,2031,2108,2047,1864,2531,1952,2160,1941,0
62,809,619,-61,17,-13,2015,2024,2108,1922,2626,2204,2189,2037,0
31,731,677,-61,15,-10,2000,1980,2145,2048,2496,2099,2157,2004,0
-8,647,733,-36,6,-6,2012,2167,2238,1537,2376,1975,2121,2029,0
-33,620,764,-23,-4,0,2929,3165,2098,2451,2302,1994,2119,2668,0
-39,594,787,-7,-14,4,2017,2290,2003,2202,2243,2539,2064,1828,0
-24,573,788,9,-20,4,1821,1779,2075,2110,2165,2291,2000,1835,0
-4,579,765,14,-23,-4,1867,1876,2038,2092,2135,2594,1953,2135,0
32,592,734,12,-17,-5,1887,2034,2044,2067,2129,2191,1979,1992,0
48,620,726,14,-11,-7,1927,2119,2070,2073,2138,1902,2017,1951,0
48,684,726,8,-7,-6,1952,2093,2081,2077,2159,1895,2030,1996,0
46,684,720,1,-5,-6,2000,2087,2079,2077,2120,1966,2064,2021,0
38,685,729,-1,-4,-5,2003,1918,2078,2073,2096,1998,2058,1999,0
33,677,734,0,-4,-4,2013,1901,2077,2071,2076,2023,2052,2017,0
32,677,736,0,-3,-3,2023,1989,2082,2072,2092,2033,2042,2029,0
33,675,738,0,-2,-2,2020,2025,2081,2074,2087,2050,2057,2024,0
32,673,741,0,-1,-1,2032,2061,2113,2066,2046,2023,2042,2011,0
30,672,743,1,-1,-1,2051,2048,2115,2083,2067,2429,2050,2056,0
26,673,745,6,-2,0,2026,2057,2085,2031,2057,2051,2042,2031,0
26,677,739,6,-3,0,2055,2605,2121,2050,2055,1918,2135,2095,0
22,680,739,8,-4,1,1967,2552,1471,1649,1940,1629,2230,2011,0
12,709,752,22,-7,6,2024,1152,689,1977,1612,1602,2186,1956,0
1,754,766,31,-13,15,2117,1571,1290,2068,1329,2171,2110,2063,0
23,767,737,16,-13,20,2624,1395,1878,2122,1319,2136,2447,2136,0
56,765,702,-5,-13,24,1900,1658,1981,2094,2356,2048,1990,1977,0
87,722,683,-19,-10,23,1893,1954,1502,2157,2546,2089,1868,2065,0
107,676,693,-17,-6,22,1912,1742,2588,2108,2366,2310,2099,2025,0
114,669,703,-20,-4,23,1916,1875,2741,2149,2298,1985,1972,2042,0
120,654,710,-21,-4,24,1966,2163,2256,2063,2218,1915,1899,1896,0
147,626,718,-16,-3,18,2004,2228,2136,2063,2197,1988,1965,1944,0
159,615,725,-12,-2,14,2023,2184,2102,2061,2183,2063,1995,1996,0
169,618,734,-9,-1,11,2042,2161,2079,2059,2134,2028,2009,2039,0
174,619,739,-7,-1,9,2056,2134,2058,2069,2121,2053,2014,2005,0
182,616,745,-4,0,7,2047,2102,2039,2062,2099,2039,2015,2054,0
184,619,751,-3,0,5,2053,2100,2042,2063,2109,2120,2065,2055,0
188,623,755,-2,0,4,2035,2082,2048,2065,2081,1996,2049,2075,0
191,619,757,-1,0,3,2031,2054,2043,2059,2047,2056,2071,2021,0
195,613,758,0,0,2,2033,2069,2052,2067,2043,2063,2050,2047,0
196,616,758,0,0,1,2021,2056,2046,2059,2039,2041,2049,2032,0
199,619,758,0,0,0,2030,2054,2039,2060,2055,2045,2040,2024,0
200,622,758,0,0,0,2047,2044,2037,2067,2061,2086,2062,2053,0
200,626,758,0,0,0,2007,2032,1997,2061,2024,2037,2039,2020,0
200,626,758,0,0,0,2043,2064,2022,2064,2045,2033,2064,2047,0
200,624,759,0,0,0,2028,2041,2033,2067,2046,2050,2052,2043,0
201,622,759,0,0,0,2037,2053,2029,2071,2050,2060,2059,2049,0
202,624,759,0,0,0,2044,2053,2032,2071,2053,2066,2051,2047,0
202,625,759,0,0,0,2040,2041,2008,2067,2041,2074,2056,2077,0
203,626,759,0,0,0,2037,2061,2011,2065,2045,2078,2071,2024,0
203,628,759,0,0,0,2028,2030,2023,2063,2030,2011,2052,2048,0
205,625,759,0,0,0,2037,2055,2046,2069,2041,2020,2067,2015,0
206,620,757,1,0,0,2039,2054,2045,2067,2051,2073,2059,2051,0
208,620,756,2,0,0,2033,2050,2031,2069,2044,2075,2036,2073,0
209,626,755,1,0,0,2033,2052,2031,2065,2042,2071,2059,2043,0
209,630,754,0,0,0,2050,2051,2041,2066,2050,2042,2071,2045,0
209,629,754,0,0,0,2038,2042,2038,2064,2046,2032,2068,2035,0
209,626,754,1,0,0,2036,2066,2043,2068,2061,2037,2066,2063,0
210,627,752,1,0,0,2027,2024,2030,2059,2047,2070,2026,2047,0
213,629,750,0,0,0,2036,2059,2025,2069,2066,2064,2048,2045,0
213,633,751,0,0,0,2029,2037,1995,2054,2039,2026,2049,2027,0
214,632,751,0,0,0,2015,2034,2015,2056,2042,2049,2046,2005,0
213,632,751,0,0,0,2069,2053,2046,2066,2055,2045,2063,2062,0
213,630,753,0,0,0,2043,2040,2038,2065,2046,2047,2061,2046,0
214,627,753,0,0,0,2052,2052,2037,2072,2050,2066,2069,2026,0
215,625,754,0,0,0,2041,2041,2041,2066,2034,2061,2062,2056,0
214,628,754,0,0,0,2046,2046,2032,2068,2046,2048,2042,2025,0
214,630,755,-1,0,0,2051,2049,2040,2069,2043,2051,2056,2059,0
214,626,755,0,0,0,2023,2041,2037,2065,2037,2032,2043,2015,0
215,621,756,0,0,0,2033,2048,2036,2056,2038,2063,2058,2068,0
215,620,757,1,0,0,2047,2042,2036,2066,2051,2057,2048,2027,0
215,624,757,0,0,0,2043,2055,2031,2067,2044,2069,2059,2052,0
215,626,757,0,0,0,2021,2047,2040,2071,2056,2048,2061,2046,0
214,625,758,0,0,0,2035,2039,2035,2064,2041,2051,2063,2025,0
214,623,758,0,0,0,2037,2044,2035,2070,2050,2060,2077,2046,0
214,622,758,0,0,0,2046,2034,2039,2065,2039,2054,2053,2049,0
215,621,759,0,0,0,2039,2048,2037,2067,2062,2064,2051,2000,0
215,621,760,0,0,0,2042,2053,2045,2070,2055,2037,2048,2056,0
216,619,761,0,0,0,2037,2044,2044,2070,2047,2054,2064,2035,0
215,616,762,0,0,0,2048,2053,2037,2073,2047,2027,2055,2055,0
215,613,763,0,0,0,2029,2032,2033,2057,2039,2064,2054,2055,0
214,614,763,0,0,0,2028,2045,2025,2066,2042,2063,2056,2027,0
214,617,764,0,0,0,2049,2045,2034,2071,2050,2064,2060,2072,0
214,618,764,0,0,0,2035,2041,2035,2065,2041,2033,2054,2051,0
215,616,764,0,0,0,2034,2042,2031,2065,2044,2044,2048,2024,0
215,614,764,0,0,0,2043,2051,2038,2069,2045,2058,2047,2027,0
216,614,765,0,0,0,2045,2042,2029,2060,2043,2032,2050,2032,0
217,613,765,0,0,0,2050,2043,2034,2069,2052,2064,2062,2071,0
217,612,765,0,0,0,2048,2047,2032,2064,2045,2067,2050,2029,0
217,613,766,0,0,0,2036,2050,2037,2067,2046,2057,2057,2067,0
217,613,767,0,0,0,2040,2044,2038,2064,2049,2057,2061,2040,0
218,612,768,0,0,0,2033,2040,2032,2067,2040,2045,2053,2045,0
217,610,770,0,0,0,2035,2047,2045,2062,2030,2021,2043,2058,0
218,605,770,0,0,0,2046,2053,2046,2065,2049,2043,2065,2041,0
219,602,770,1,0,0,2043,2045,2025,2067,2049,2067,2051,2031,0
219,606,771,0,0,0,2052,2049,2037,2066,2040,2067,2060,2070,0
220,609,772,-1,0,0,2033,2048,2034,2067,2047,2043,2059,2050,0
219,608,773,-1,0,0,2045,2053,2039,2070,2046,2045,2055,2057,0
219,604,774,0,0,0,2051,2052,2036,2066,2041,2046,2059,2063,0
219,601,775,0,0,0,2033,2040,2022,2067,2052,2075,2060,2031,0
220,601,775,0,0,0,2048,2054,2042,2064,2047,2053,2051,2032,0
220,603,776,0,0,0,2033,2048,2013,2068,2039,2037,2041,2035,0
221,601,774,0,0,0,2044,2053,2025,2066,2045,2073,2054,2031,0
222,603,774,-2,0,0,2030,2046,2045,2064,2057,2050,2047,2041,0
222,600,777,-2,0,0,2044,2037,2037,2062,2041,2022,2050,2040,0
222,593,779,-1,0,0,2037,2059,2047,2067,1992,1837,2072,2081,0
221,586,782,1,0,0,2027,2030,2067,2064,1927,2102,1972,2024,0
219,578,789,6,0,0,2032,2039,2079,2125,2001,2251,1879,2065,0
211,580,791,20,-3,0,2050,2060,1734,2141,1965,2335,1948,2216,0
209,594,773,28,-6,-1,2092,2208,2159,2033,2034,1989,2003,2975,0
227,608,729,12,-4,-3,2299,2873,2665,2109,2093,1839,2052,2576,0
255,584,710,-9,1,-11,2244,2448,2157,2155,2112,1871,1940,2416,0
251,535,722,-6,5,-20,1893,1918,2069,1985,1825,2062,2031,2001,0
215,536,749,10,5,-24,2097,2092,2128,2076,1118,1997,1945,2566,0
191,571,742,14,7,-29,1983,2105,2063,2135,1971,1811,1740,1585,0
180,623,727,8,14,-32,1972,1848,2097,2101,2314,2191,1955,1662,0
146,720,741,-1,15,-27,1984,1868,2080,2046,2230,1870,2051,1782,0
123,736,738,-10,15,-22,1996,1873,2079,2056,2198,1991,2003,1860,0
90,700,745,-11,11,-17,1995,1969,2074,2066,2171,1767,2026,1920,0
67,671,763,-6,8,-13,2006,2040,2072,2070,2136,1997,2035,1962,0
52,651,771,0,4,-9,2023,2049,2086,2078,2109,2022,2034,1971,0
45,655,766,1,2,-6,2037,2030,2084,2076,2101,2024,2047,2000,0
45,660,762,0,1,-4,2034,2027,2082,2072,2082,2020,2040,1999,0
42,661,760,0,0,-3,2034,2035,2083,2081,2086,2009,2048,2033,0
38,658,761,1,0,-2,2027,2027,2076,2078,2066,1997,2032,2017,0
35,656,761,1,0,-1,2039,2053,2085,2081,2065,2015,2040,2024,0
33,657,759,1,0,0,2035,2037,2086,2077,2058,2002,2049,2033,0
33,659,758,1,0,0,2024,2041,2072,2078,2049,1995,2044,2032,0
32,659,757,0,0,0,2050,2042,2084,2076,2056,1998,2040,2037,0
31,658,757,0,0,0,2029,2033,2081,2079,2048,1997,2039,2019,0
31,659,756,0,0,0,2034,2036,2077,2076,2050,2002,2039,2035,0
31,659,755,0,0,0,2041,2051,2087,2077,2052,2001,2038,2051,0
31,659,754,0,0,0,2035,2031,2076,2073,2047,1991,2040,2043,0
31,659,753,0,0,0,2037,2040,2087,2076,2049,2000,2049,2050,0
31,660,753,0,0,0,2040,2046,2083,2073,2054,2003,2044,2021,0
30,660,753,0,0,0,2035,2027,2074,2071,2046,2002,2045,2037,0
29,660,753,0,0,0,2045,2047,2089,2078,2059,1999,2034,2037,0
29,660,753,0,0,0,2035,2027,2072,2070,2040,1997,2052,2033,0
29,661,753,0,0,0,2045,2048,2086,2079,2051,2011,2043,2047,0
29,661,753,0,0,0,2042,2033,2082,2080,2050,2004,2050,2042,0
28,661,753,0,0,0,2032,2038,2077,2073,2051,1998,2034,2043,0
27,660,753,0,0,0,2037,2045,2088,2077,2054,2002,2041,2055,0
26,659,754,0,0,0,2035,1998,2074,2077,2047,2009,2045,2041,0
25,658,755,0,0,0,2033,2027,2078,2080,2052,2006,2050,2050,0
25,658,755,0,0,0,2042,2040,2079,2080,2053,2015,2048,2031,0
25,658,755,0,0,0,2042,1989,2079,2071,2047,2006,2038,2042,0
24,658,755,0,0,0,2046,2001,2082,2076,2050,2007,2053,2061,0
23,658,755,0,0,0,2038,1991,2075,2073,2046,2001,2037,2043,0
23,658,755,0,0,0,2037,2038,2081,2076,2040,1997,2034,2027,0
23,657,755,0,0,0,2040,2053,2082,2074,2050,2003,2043,2047,0
23,656,756,0,0,0,2034,2044,2076,2075,2045,2006,2042,2028,0
23,656,756,0,0,0,2040,2048,2081,2079,2049,2005,2047,2043,0
23,656,756,0,0,0,2034,2048,2085,2075,2039,2004,2041,2043,0
23,655,756,0,0,0,2032,2056,2070,2072,2044,2002,2034,2036,0
23,655,756,0,0,0,2041,2070,2083,2075,2050,1999,2040,2045,0
23,656,756,0,0,0,2033,2040,2072,2069,2046,1997,2045,2043,0
23,656,756,0,0,0,2042,2051,2090,2080,2060,2047,2033,2029,0
23,656,756,0,0,0,2033,2108,2132,2049,1984,2234,1949,2057,0
22,654,757,2,0,0,2050,2677,2104,2030,2058,2239,1790,2091,0
18,647,756,11,0,0,2028,3063,2117,1823,2038,2315,2044,2036,0
12,653,759,23,-3,1,1989,2044,2010,1815,2046,2316,2260,2035,0
9,695,758,33,-6,4,2038,1694,1897,2051,2018,1656,2377,2047,0
6,724,747,30,-10,9,2027,1756,1383,2077,1879,2085,2359,2013,0
20,729,712,27,-11,11,2074,1524,1668,2067,1804,2087,2244,2050,0
41,751,678,11,-9,12,2225,1464,1339,2079,1683,2078,2186,2111,0
54,766,667,-6,-8,12,2151,1952,1704,2107,2004,1894,2116,2238,0
76,768,660,-22,-4,14,2007,1847,1909,2081,2238,2233,2012,1830,0
96,722,673,-31,-2,11,1974,1911,1940,2090,2386,1918,2152,2092,0
91,688,688,-24,0,10,2086,2053,2138,2107,2250,2124,1974,2177,0
85,690,702,-32,-1,13,2005,2079,2183,2085,2143,2037,1944,2001,0
96,655,719,-27,0,11,1993,2083,2140,2073,2155,2112,1996,1995,0
99,636,732,-23,0,10,2011,2102,2087,2070,2138,2010,1986,2013,0
109,623,748,-20,-1,8,2015,2104,1811,2069,2101,2055,2018,2006,0
116,610,760,-15,-1,7,2019,2063,2043,2054,2076,2068,2028,1997,0
122,601,770,-10,-1,5,2031,2096,2080,2071,2059,2009,2037,2044,0
124,597,777,-6,-1,4,2041,2064,2078,2070,2038,2083,2050,2033,0
127,597,780,-4,-1,3,2016,2063,2049,2065,2039,2034,2033,2007,0
131,596,785,-2,-1,2,2035,2063,2060,2070,2043,2076,2052,2043,0
133,596,788,0,-1,1,2034,2051,2048,2068,2043,2032,2041,2032,0
136,597,789,0,-1,0,2035,2067,2048,2064,2054,2038,2058,2054,0
138,595,790,0,-1,0,2035,2055,2042,2065,2045,2046,2057,2039,0
139,595,791,1,-1,0,2044,2052,2031,2064,2044,2053,2051,2038,0
140,599,791,0,-1,0,2031,2036,2026,2067,2037,2052,2047,2043,0
141,601,791,0,-1,0,2027,2042,2024,2064,2043,2037,2059,2054,0
142,600,792,0,-1,0,2043,2048,2029,2068,2044,2045,2071,2061,0
142,598,792,0,-1,0,2032,2046,2026,2061,2038,2069,2061,2033,0
143,598,793,0,-1,0,2028,2044,2026,2060,2036,2009,2058,2027,0
143,598,794,0,-1,0,2043,2043,2033,2061,2043,2031,2051,2053,0
145,596,792,1,-1,0,2037,2042,2027,2063,2040,2034,2048,2034,0
146,597,791,1,-1,0,2040,2053,2034,2067,2058,2082,2043,2024,0
147,601,790,0,-1,0,2044,2048,2032,2064,2041,2070,2064,2065,0
148,603,790,0,-1,0,2039,2032,2026,2062,2041,2055,2064,2035,0
148,604,790,0,-1,0,2051,2055,2035,2065,2043,2044,2068,2050,0
148,604,790,0,-1,0,2036,2046,2030,2070,2037,2037,2060,2046,0
149,602,790,0,-1,0,2057,2054,2032,2065,2032,2048,2053,2050,0
150,601,789,0,-1,0,2043,2044,2032,2068,2044,2051,2069,2049,0
150,601,790,0,-1,0,2038,2052,2024,2065,2056,2063,2051,2026,0
150,602,790,0,-1,0,2047,2048,2026,2066,2044,2054,2057,2060,0
150,602,790,0,-1,0,2038,2041,2029,2066,2047,2041,2055,2008,0
150,602,790,0,-1,0,2040,2049,2035,2057,2047,2049,2061,2057,0
150,600,790,0,-1,0,2040,2045,2030,2065,2048,2042,2051,2052,0
150,599,790,0,-1,0,2029,2046,2027,2058,2040,2058,2049,2029,0
150,599,791,0,-1,0,2040,2048,2030,2067,2044,2051,2065,2063,0
150,599,791,0,-1,0,2032,2043,2026,2059,2045,2054,2046,2029,0
150,601,791,0,-1,0,2038,2051,2026,2065,2053,2053,2056,2053,0
150,603,791,0,-1,0,2038,2042,2037,2069,2045,2040,2062,2065,0
150,602,790,0,-1,0,2034,2040,2029,2063,2040,2041,2051,2052,0
150,600,790,0,-1,0,2045,2047,2034,2067,2054,2065,2056,2049,0
150,601,790,0,-1,0,2039,2049,2030,2067,2047,2053,2056,2058,0
151,601,790,0,-1,0,2036,2040,2031,2064,2043,2053,2055,2037,0
151,601,790,0,-1,0,2038,2049,2032,2070,2051,2066,2064,2064,0
151,600,791,0,-1,0,2034,2044,2026,2063,2041,2043,2052,2032,0
151,599,791,0,-1,0,2068,2053,2037,2067,2047,2064,2064,2059,0
151,598,792,0,-1,0,2050,2054,2034,2066,2057,2053,2064,2065,0
151,597,793,0,-1,0,2034,2040,2025,2061,2049,2047,2041,2019,0
152,597,793,0,-1,0,2047,2054,2041,2065,2056,2038,2057,2057,0
152,598,792,0,-1,0,2031,2039,2036,2064,2045,2042,2053,2031,0
153,599,791,0,-1,0,2044,2049,2029,2060,2046,2061,2057,2036,0
154,600,791,0,-1,0,2033,2042,2029,2067,2042,2050,2046,2052,0
154,600,792,0,-1,0,2036,2047,2027,2064,2042,2047,2056,2044,0
154,599,792,0,-1,0,2046,2049,2037,2060,2039,2040,2064,2066,0
153,597,792,0,-1,0,2035,2043,2026,2058,2029,2057,2058,2030,0
153,597,792,0,-1,0,2046,2048,2038,2066,2046,2054,2051,2036,0
153,598,793,0,-1,0,2031,2039,2035,2064,2042,2029,2059,2034,0
154,597,792,0,-1,0,2040,2043,2029,2063,2043,2062,2054,2044,0
154,596,792,0,-1,0,2035,2052,2035,2064,2048,2051,2064,2051,0
154,597,793,0,-1,0,2038,2043,2038,2064,2047,2042,2057,2039,0
154,597,793,0,-1,0,2048,2044,2035,2062,2047,2055,2059,2056,0
155,597,793,0,-1,0,2043,2057,2044,2067,2060,2053,2059,2047,0
155,598,793,0,-1,0,2034,2042,2030,2063,2045,2039,2055,2043,0
155,597,793,0,-1,0,2039,2048,2037,2067,2047,2061,2053,2059,0
155,597,793,0,-1,0,2032,2047,2031,2066,2040,2055,2052,2030,0
155,598,793,0,-1,0,2035,2044,2035,2066,2048,2057,2053,2049,0
155,598,793,0,-1,0,2050,2057,2035,2068,2052,2047,2056,2050,0
155,596,794,0,-1,0,2033,2038,2034,2062,2041,2054,2056,2033,0
155,595,795,0,-1,0,2041,2041,2039,2061,2043,2034,2064,2066,0
155,594,795,0,-1,0,2032,2043,2033,2059,2044,2050,2058,2034,0
155,592,795,0,-1,0,2037,2051,2031,2065,2041,2060,2049,2042,0
156,591,796,0,-1,0,2042,2060,2032,2072,2051,2056,2061,2064,0
154,592,798,0,-1,0,2036,2053,2040,2067,2042,2048,2059,2028,0
154,592,797,0,-1,0,2045,2055,2040,2065,2053,2051,2065,2065,0
154,591,797,0,-1,0,2042,2034,2034,2069,2048,2046,2064,2051,0
155,589,797,0,-1,0,2048,2051,2047,2068,2043,2023,2061,2024,0
155,588,798,1,-1,0,2041,2047,2050,2073,2050,1959,2053,2057,0
154,585,801,3,-1,0,2034,2035,2076,2066,2018,2050,1919,2011,0
150,586,803,9,-3,0,2051,2032,2103,2101,1947,2102,1884,2035,0
148,586,801,22,-5,0,2171,2020,1954,2092,1952,2582,1985,2032,0
151,607,770,27,-5,1,2074,3073,2557,2098,2062,1506,2017,2127,0
178,613,723,-4,-1,0,2073,2397,2288,1994,2188,1910,2041,2175,0
215,556,712,-26,7,-13,2035,2034,2114,1898,1977,932,2057,2246,0
187,493,751,-5,12,-20,1944,1852,1995,2108,1411,0,1950,1842,0
139,542,790,14,9,-20,2025,1718,2096,2103,2068,141,2002,1982,0
112,612,783,19,7,-20,2044,1885,2116,2089,2240,2961,2104,2039,0
103,704,753,9,7,-15,2062,1835,2130,2115,2235,2731,2090,2004,0
95,710,734,-5,7,-12,2000,1913,2070,2080,2159,1678,2055,2000,0
84,681,754,-8,6,-10,2020,1985,2071,2076,2128,1721,2037,2029,0
69,643,773,0,2,-7,2027,2008,2077,2082,2089,1627,2008,2029,0
61,639,772,3,0,-5,2033,2020,2083,2077,2076,1825,2033,2027,0
62,650,765,2,0,-3,2039,2029,2085,2080,2079,1929,2046,2058,0
62,658,760,0,0,-2,2034,2023,2083,2077,2068,1952,2048,2042,0
59,655,761,0,0,-1,2045,2040,2080,2077,2063,1895,2060,2046,0
57,652,762,0,0,0,2036,2009,2088,2079,2056,1924,2067,2047,0
58,652,761,0,0,0,2033,2023,2078,2079,2049,1894,2063,2035,0
57,652,761,0,0,0,2045,2045,2082,2076,2064,1915,2051,2038,0
55,650,762,0,0,0,2039,2055,2088,2079,2057,1912,2060,2056,0
54,649,763,0,0,0,2032,2049,2077,2074,2051,1874,2045,2032,0
54,650,762,0,0,0,2051,2064,2092,2078,2060,1881,2046,2028,0
54,650,762,0,0,0,2036,2038,2079,2073,2049,1895,2051,2034,0
54,650,762,0,0,0,2036,2041,2082,2072,2049,1885,2043,2049,0
54,651,761,0,0,0,2043,2052,2082,2075,2047,1892,2055,2030,0
54,651,761,0,0,0,2034,2040,2074,2073,2035,1885,2040,2055,0
53,650,761,0,0,0,2040,2057,2086,2080,2052,1897,2060,2048,0
52,650,761,0,0,0,2032,2047,2077,2075,2052,1898,2046,2039,0
52,652,760,0,0,0,2043,2043,2082,2073,2045,1887,2056,2054,0
52,653,759,0,0,0,2040,2040,2082,2076,2051,1892,2053,2041,0
52,652,759,0,0,0,2035,2040,2079,2080,2042,1880,2051,2026,0
51,650,760,0,0,0,2042,2044,2086,2073,2050,1872,2046,2049,0
50,649,761,0,0,0,2036,2029,2080,2069,2039,1883,2021,2020,0
49,648,761,0,0,0,2046,2053,2078,2076,2051,1888,2044,2051,0
49,648,761,0,0,0,2034,2058,2090,2073,2047,1895,2051,2039,0
49,649,761,0,0,0,2034,2042,2079,2076,2039,1933,2049,2042,0
49,650,760,0,0,0,2051,2070,2091,2085,2053,1937,2048,2046,0
50,651,759,0,0,0,2045,2056,2085,2083,2042,1940,2051,2051,0
49,651,759,0,0,0,2058,2048,2082,2068,2043,1933,2044,2038,0
49,652,758,0,0,0,2044,2056,2081,2080,2043,1913,2054,2048,0
49,652,758,0,0,0,2030,2036,2077,2075,2048,1920,2055,2039,0
49,651,758,0,0,0,2036,2045,2087,2079,2043,1919,2052,2058,0
49,652,757,0,0,0,2029,2034,2081,2080,2051,1919,2051,2046,0
49,653,757,0,0,0,2036,2030,2070,2065,2038,1928,2047,2035,0
49,653,757,0,0,0,2042,2045,2078,2075,2054,1919,2051,2051,0
49,654,757,0,0,0,2047,2044,2081,2075,2048,1924,2039,2033,0
49,654,757,0,0,0,2035,2044,2080,2080,2038,1922,2054,2065,0
49,654,757,0,0,0,2038,2044,2087,2077,2047,1933,2049,2043,0
49,654,757,0,0,0,2036,2050,2079,2076,2050,1938,2034,2038,0
49,654,757,0,0,0,2051,2046,2083,2081,2046,1950,2059,2050,0
49,654,757,0,0,0,2037,2060,2093,2081,2066,2208,2041,2048,0
49,654,757,0,0,0,2050,2085,2119,2077,2028,2556,1933,2077,0
48,657,756,4,0,0,2039,2127,2121,2099,2052,2803,1732,2079,0
47,653,752,13,0,0,2077,2917,2157,1828,2071,2593,1826,2066,0
38,650,756,20,-2,1,1992,2237,2047,394,2181,2285,2252,2040,0
25,671,774,45,-6,4,2142,1510,1057,1950,2012,1892,2488,2017,0
4,677,793,56,-17,4,2158,1526,1277,2138,2080,2119,3008,1998,0
57,695,692,59,-19,-1,2293,1836,2006,2215,1868,1836,2080,2067,0
66,824,624,11,-15,5,1955,1585,2154,2220,1941,2119,2291,2025,0
55,810,608,-15,-13,10,1971,1840,1947,2104,1863,2170,1996,2038,0
91,735,604,-18,-7,5,1944,2002,2112,2090,2034,2087,1857,1980,0
81,724,632,-22,-7,6,1978,2091,2060,2081,2129,2071,1966,2073,0
90,695,665,-15,-6,6,2016,2122,2049,2080,2094,2067,2013,2050,0
95,678,671,-10,-5,5,2015,2094,2072,2076,2093,2076,1897,2034,0
101,683,679,-8,-4,4,2018,2112,2072,2075,2085,2042,1975,2043,0
108,678,686,-5,-3,3,2038,2099,2056,2064,2082,2063,2033,2025,0
113,674,690,-2,-2,2,2021,2086,2041,2055,2066,2052,1999,2012,0
114,682,699,-1,-2,1,2023,2087,2050,2067,2070,2053,2079,2054,0
116,684,703,0,-2,0,2009,2057,2039,2063,2056,2057,2065,2034,0
117,687,703,0,-2,0,2033,2075,2039,2061,2052,2059,2062,2062,0
119,691,704,0,-1,0,2031,2066,2043,2065,2034,2050,2047,2055,0
120,692,705,0,-1,0,2054,2067,2043,2067,2039,2056,2069,2054,0
121,690,706,0,-1,0,2032,2050,2035,2061,2045,2048,2070,2042,0
120,693,706,0,-1,0,2038,2045,2028,2055,2041,2046,2052,2034,0
121,695,708,0,-1,0,2026,2042,2034,2057,2047,2051,2058,2038,0
120,695,710,0,-1,0,2049,2054,2042,2058,2043,2049,2070,2056,0
120,691,712,0,-1,0,2032,2041,2035,2060,2052,2050,2043,2043,0
119,690,713,0,-1,0,2031,2054,2037,2060,2048,2052,2059,2066,0
120,690,712,0,-1,0,2043,2059,2040,2067,2051,2061,2044,2054,0
121,692,712,0,-1,0,2034,2048,2036,2065,2048,2057,2063,2048,0
121,693,712,0,-1,0,2034,2045,2036,2063,2049,2057,2058,2061,0
122,692,712,0,-1,0,2038,2053,2038,2067,2037,2057,2052,2058,0
122,691,713,0,-1,0,2047,2055,2047,2070,2052,2051,2056,2049,0
122,690,713,0,-1,0,2034,2047,2041,2069,2046,2050,2063,2043,0
122,690,714,0,-1,0,2043,2060,2039,2063,2052,2056,2046,2054,0
122,691,714,0,-1,0,2044,2065,2044,2061,2053,2055,2060,2038,0
123,690,714,0,-1,0,2042,2041,2037,2061,2052,2057,2047,2038,0
123,691,713,0,-1,0,2043,2055,2045,2068,2049,2057,2049,2041,0
124,691,713,0,-1,0,2033,2038,2034,2062,2046,2047,2060,2049,0
124,690,713,0,-1,0,2030,2052,2039,2066,2051,2057,2050,2041,0
124,691,713,0,-1,0,2038,2053,2002,2057,2043,2050,2079,2056,0
124,691,713,0,-1,0,2034,2040,2032,2062,2057,2048,2056,2021,0
124,692,713,0,-1,0,2054,2047,2041,2068,2043,2057,2057,2049,0
125,693,713,0,-1,0,2041,2039,2040,2064,2040,2050,2049,2044,0
125,692,713,0,-1,0,2027,2040,2038,2062,2038,2048,2041,2036,0
126,689,713,0,-1,0,2055,2051,2039,2068,2048,2050,2058,2060,0
126,689,713,0,-1,0,2052,2056,2045,2069,2056,2057,2052,2029,0
126,689,712,0,-1,0,2034,2048,2022,2068,2044,2059,2073,2057,0
126,690,713,0,-1,0,2047,2056,2032,2069,2050,2052,2062,2051,0
126,691,713,0,-1,0,2022,2041,2028,2065,2036,2048,2036,2011,0
126,691,713,0,-1,0,2046,2046,2039,2068,2047,2054,2065,2052,0
126,689,714,0,-1,0,2049,2044,2034,2073,2048,2059,2041,2040,0
126,689,714,0,-1,0,2049,2051,2031,2074,2033,2046,2059,2054,0
126,689,714,0,-1,0,2044,2053,2038,2066,2038,2059,2057,2064,0
126,689,714,0,-1,0,2042,2043,2029,2072,2056,2053,2060,2036,0
126,688,715,0,-1,0,2045,2055,2038,2067,2051,2051,2073,2046,0
126,688,715,0,-1,0,2038,2053,2041,2072,2053,2054,2027,2017,0
126,688,716,0,-1,0,2055,2050,2037,2068,2046,2046,2048,2056,0
127,686,716,0,-1,0,2033,2053,2032,2063,2049,2056,2064,2042,0
127,686,716,0,-1,0,2054,2055,2039,2070,2046,2058,2036,2031,0
127,686,717,0,-1,0,2037,2053,2023,2061,2051,2055,2060,2056,0
127,686,717,0,-1,0,2043,2044,2034,2066,2041,2061,2061,2050,0
127,686,717,0,-1,0,2036,2048,2039,2065,2044,2044,2055,2030,0
127,686,717,0,-1,0,2038,2044,2043,2065,2051,2051,2063,2046,0
128,685,717,0,-1,0,2034,2040,2031,2067,2039,2053,2050,2032,0
127,685,718,0,-1,0,2048,2060,2043,2068,2056,2061,2064,2042,0
127,687,718,0,-1,0,2046,2050,2038,2066,2042,2054,2049,2044,0
127,688,718,0,-1,0,2025,2039,2037,2066,2043,2047,2062,2045,0
127,687,718,0,-1,0,2054,2050,2037,2066,2042,2056,2054,2045,0
127,685,718,0,-1,0,2027,2044,2032,2064,2043,2052,2055,2032,0
127,685,718,0,-1,0,2041,2050,2040,2065,2054,2066,2052,2028,0
127,685,718,0,-1,0,2035,2050,2030,2069,2056,2053,2063,2057,0
127,685,719,0,-1,0,2026,2038,2028,2072,2044,2050,2049,2036,0
127,685,719,0,-1,0,2063,2054,2039,2070,2051,2055,2053,2037,0
127,685,719,0,-1,0,2026,2039,2031,2063,2034,2047,2050,2048,0
127,684,720,0,-1,0,2051,2050,2040,2067,2048,2056,2049,2067,0
127,683,720,0,-1,0,2039,2050,2038,2067,2039,2050,2061,2044,0
127,682,720,0,-1,0,2029,2039,2033,2066,2038,2054,2060,2043,0
127,683,720,0,-1,0,2035,2054,2039,2071,2051,2063,2063,2038,0
128,682,721,0,-1,0,2021,2044,2041,2069,2043,2046,2054,2051,0
128,682,722,0,-1,0,2047,2056,2042,2067,2046,2047,2061,2058,0
128,681,722,0,-1,0,2040,2051,2039,2070,2041,2075,2051,2046,0
128,681,722,0,-1,0,2029,2055,2040,2073,2052,2052,2056,2037,0
128,681,723,0,-1,0,2038,2059,2030,2069,2056,2057,2070,2036,0
128,683,722,0,-1,0,2036,2059,2026,2068,2063,2063,2052,2051,0
129,688,721,-1,-1,0,2047,2059,2010,2070,2078,2053,2036,2038,0
131,686,722,-2,0,0,2054,2051,2031,2062,2045,2022,2032,2021,0
130,678,724,-1,0,0,2032,2044,2039,2070,2033,2050,2061,2038,0
128,672,726,0,0,0,2028,2036,2035,2056,2034,2060,2053,2033,0
127,674,727,0,0,0,2043,2045,2035,2067,2041,2053,2057,2058,0
128,677,726,0,0,0,2038,2038,2035,2068,2045,2055,2044,2047,0
129,679,725,-1,0,0,2042,2058,2039,2069,2044,2046,2061,2057,0
130,677,726,-1,0,0,2048,2042,2037,2063,2040,2046,2034,2042,0
129,674,728,0,0,0,2037,2053,2036,2062,2025,2036,2066,2048,0
129,671,730,1,0,0,2037,2038,1955,2073,2037,2045,2030,2058,0
129,669,732,2,0,0,2036,2037,2050,2085,1985,2065,1943,2037,0
127,672,733,5,-1,0,2046,2045,2010,2088,2003,2012,1970,2055,0
127,681,731,13,-1,1,2050,2369,2023,2110,2022,2392,1917,2024,0
128,699,703,11,-2,3,2111,3039,2522,1997,2018,1921,2020,2123,0
156,676,669,-12,1,0,2084,1903,2229,2035,2280,1870,2022,2234,0
177,626,669,-32,7,-10,2054,1784,2118,1949,2063,1978,2016,2221,0
142,614,717,-26,8,-10,2043,1935,2110,2208,1934,2095,2077,2101,0
117,607,760,-10,7,-9,1971,1718,2112,2033,2003,1946,2145,1927,0
98,624,776,2,2,-7,2060,1916,2072,2080,1999,2142,2092,2005,0
87,688,761,-5,1,-4,2032,1951,2094,2067,2015,1989,2071,2012,0
94,678,751,-12,3,-5,2019,2013,2081,2086,2022,2083,2072,2000,0
83,661,767,-10,2,-3,2043,2019,2087,2070,2034,2047,2051,2029,0
74,644,773,-4,0,-2,2039,2028,2076,2075,2032,2068,2052,2013,0
71,644,771,-3,0,-1,2044,2036,2080,2078,2059,2051,2053,2023,0
71,647,769,-2,0,0,2029,2043,2083,2080,2048,2056,2060,2034,0
69,644,770,-1,0,0,2030,2029,2083,2075,2046,2054,2030,2014,0
68,642,771,0,0,0,2041,2037,2079,2083,2049,2061,2059,2048,0
68,643,770,0,0,0,2037,2029,2083,2074,2042,2059,2054,2048,0
68,643,769,0,0,0,2047,2044,2081,2080,2048,2055,2059,2040,0
67,643,769,0,0,0,2045,2045,2089,2072,2059,2058,2048,2021,0
